2292863 2293073 2293192 2293345 2293389 2293419 2067473 2067440 2067355 2105149 2104838 2104865 2104997 2097392 2094861 2095903 2106026 2108924 2108089 2105869 2103968 2103477 2103268 2102991 2102571 2101024 2100107 2099632 2099480 2099631 2099912 2100020 2100081 2100298 2100610 2100576 2100538 2100519 2100585 2100594 2100530 2100433 2099380 2097828 2097224 2096929 2096513 2096409 2096453 2096104 2095924 2096042 2096035 2096231 2096494 2096681 2097201 2097303 2097394 2097371 2096417 2094242 2091604 2089058 2085402 2081856 2079228 2077705 2076373 2073844 2071601 2070240 2069764 2069659 2069217 2068604 2068710 2068917 2068966 2068913 2068750 2066577 2061294 2056242 2052687 2050225 2047833 2045229 2042622 2040218 2038358 2036446 2034035 2031878 2030347 2029749 2029100 2027949 2026874 2026313 2026306 2026391 2024569 2018669 2013532 2010716 2008914 2007335 2005934 2004864 2003908 2003460 2003016 2002264 2001219 2000806 2000731 2000648 1999932 1999239 1998830 1999028 1999378 1999271 1995385 1989938 1986155 1983491 1981396 1980061 1979699 1979492 1978895 1978061 1977058 1976721 1977111 1978141 1979552 1980540 1981135 1981877 1983444 1985522 1987993 1990064 1991427 1989567 1987178 1987011 1989099 1992347 1995628 1998746 2001064 2003374 2005250 2006966 2008663 2010341 2012231 2014071 2015821 2017333 2018652 2019986 2021190 2020624 2018888 2017883 2017917 2019039 2019969 2021002 2021790 2022237 2022703 2023566 2024247 2025074 2026083 2026781 2027753 2028431 2029158 2028233 2025801 2023850 2023275 2023258 2023528 2024225 2024728 2025334 2025795 2026455 2027382 2028226 2029158 2029771 2030736 2031607 2032531 2032962 2031444 2029021 2027759 2027473 2027946 2028405 2028998 2029518 2029941 2030367 2031530 2032421 2033375 2034181 2035187 2035997 2037179 2037147 2034925 2032642 2031500 2031327 2031361 2031985 2032730 2033230 2033671 2034006 2034597 2035352 2036009 2036829 2037619 2038579 2038128 2034949 2031721 2030361 2029782 2029524 2029607 2029646 2030010 2030205 2030485 2030922 2031480 2032374 2032980 2033869 2034734 2035269 2033520 2029294 2026443 2025045 2024238 2023495 2023607 2023885 2024006 2024056 2024370 2024920 2025549 2026333 2027204 2027897 2028477 2028869 2025979 2020827 2017600 2015958 2014654 2014027 2013863 2014187 2014266 2014420 2014623 2015247 2016081 2016914 2017932 2019007 2019985 2021216 2022175 2020136 2015269 2012314 2010990 2010066 2009283 2008998 2008547 2007910 2005124 2002570 2001383 2001044 2000023 1998495 1997828 1997776 1997944 1995351 1986661 1977517 1969780 1963446 1958429 1955270 1952610 1948883 1945002 1942749 1940762 1938415 1936285 1935231 1934639 1933336 1931497 1930455 1930573 1931028 1930351 1929336 1929046 1929220 1922189 1911077 1903509 1899537 1897756 1896653 1895636 1893598 1891345 1890091 1889425 1888897 1888417 1888354 1889278 1891022 1892507 1893505 1894530 1895942 1897831 1899978 1901978 1902822 1899296 1891639 1885338 1881358 1878652 1877604 1878460 1879871 1880345 1879051 1877925 1878126 1879323 1881049 1882486 1883650 1885226 1887297 1890034 1892705 1894902 1896950 1898075 1894177 1887630 1883183 1881041 1880331 1881053 1883190 1886512 1889688 1892248 1894141 1895138 1896093 1897740 1900227 1903215 1906274 1909526 1912471 1915614 1918246 1920964 1917978 1910862 1906067 1904031 1903527 1903319 1904051 1905445 1906927 1908331 1908573 1908584 1909024 1910399 1912524 1914877 1917006 1919200 1920967 1922106 1918592 1911173 1905195 1902100 1901028 1901288 1902522 1904233 1905294 1905458 1906226 1907817 1909963 1912466 1914437 1916396 1918161 1920380 1922848 1925228 1922118 1914475 1909030 1906312 1904524 1902940 1902362 1902540 1902195 1901352 1900331 1900414 1902151 1904933 1908376 1911740 1915345 1918919 1922396 1925804 1928694 1927012 1923777 1922384 1922718 1924000 1926076 1928421 1930905 1932538 1933843 1935131 1936775 1938924 1941161 1943297 1945474 1947499 1949520 1949582 1943411 1937627 1935213 1934596 1934815 1935404 1936706 1937545 1938092 1938621 1939507 1941270 1943101 1944821 1946654 1948814 1951103 1953270 1954010 1949114 1944941 1943650 1944114 1945341 1947801 1950670 1952776 1954351 1956017 1957825 1960043 1962225 1964266 1966101 1968100 1970045 1968689 1963322 1959123 1956690 1954118 1950655 1947416 1944062 1939821 1935103 1931058 1928151 1926023 1924423 1923152 1922386 1921814 1921226 1914953 1903598 1894124 1888270 1884207 1880589 1878663 1877763 1876823 1875630 1875158 1875873 1877622 1879613 1881606 1883907 1886338 1889022 1888853 1881169 1873317 1869021 1867294 1866363 1866399 1867243 1868207 1868523 1868817 1869972 1871665 1873626 1875834 1877835 1880513 1883061 1884750 1879276 1870940 1866105 1864288 1863770 1864160 1865646 1867108 1868080 1868943 1870578 1873122 1876593 1880067 1883634 1887023 1889961 1892683 1894688 1896328 1891496 1880872 1872757 1868552 1867682 1870217 1873535 1877630 1881724 1885103 1887931 1891335 1894841 1898338 1901776 1905265 1908614 1911503 1914325 1917186 1919819 1916346 1909774 1905574 1903550 1902706 1903154 1904410 1905886 1906794 1907645 1908767 1910538 1912919 1915391 1917981 1920522 1922915 1925413 1927831 1930224 1932931 1935419 1933875 1927131 1922225 1920354 1919891 1920032 1920695 1921887 1923290 1924007 1924884 1926129 1927860 1929788 1931986 1934091 1936053 1938151 1940213 1942488 1944391 1943579 1937313 1932224 1930372 1929941 1930090 1930919 1932470 1933785 1934483 1935483 1936712 1938851 1940666 1942619 1944703 1946475 1948187 1950031 1950240 1943717 1936901 1932948 1931441 1931035 1931540 1932301 1932896 1932834 1933032 1933779 1935066 1936677 1938152 1939992 1941911 1943671 1945557 1947409 1948243 1942202 1934849 1930223 1927940 1926891 1926621 1927403 1927988 1928015 1927960 1928300 1929058 1930585 1932346 1934555 1936897 1938900 1940862 1942983 1945396 1944661 1937880 1932594 1930306 1929474 1929392 1929805 1931084 1932802 1934330 1935759 1937628 1939768 1941871 1944091 1946238 1947943 1949395 1951404 1953514 1954339 1949879 1946256 1945298 1945589 1945864 1946394 1947354 1948539 1949557 1950366 1951370 1953041 1955058 1957340 1959507 1961613 1963606 1965614 1967307 1965617 1959368 1955419 1953725 1952902 1952565 1952943 1953915 1954763 1954976 1955567 1956471 1957659 1959217 1960741 1962507 1964021 1965689 1967353 1969067 1969490 1963638 1957866 1954985 1953623 1952968 1952620 1953311 1953825 1953918 1953328 1953489 1954365 1955773 1957395 1959425 1961339 1963460 1965301 1966921 1968935 1970628 1967088 1960839 1957117 1955763 1954951 1954766 1955366 1956233 1956804 1957092 1957862 1958971 1960559 1962222 1963805 1965236 1966454 1967627 1968813 1969635 1965480 1957623 1952157 1949658 1948960 1949068 1949703 1951169 1952508 1953322 1954185 1955580 1956943 1958694 1960364 1962176 1963947 1965723 1967571 1969274 1971167 1972961 1974598 1972691 1966634 1962290 1960334 1959506 1959503 1960000 1960906 1961554 1961692 1961966 1962766 1963950 1965379 1966842 1968130 1969381 1971208 1972991 1974584 1974739 1969624 1964911 1962327 1961612 1961603 1962084 1963289 1964721 1965381 1966072 1967159 1969507 1972510 1975317 1977705 1980405 1982733 1984614 1985208 1982063 1978856 1976982 1976260 1975770 1976008 1976788 1977217 1977197 1977275 1977901 1978797 1979805 1981355 1982641 1984033 1985313 1983469 1977426 1972903 1970757 1969382 1968866 1969106 1969338 1969681 1970203 1973079 1979302 1985122 1989664 1993291 1996576 1999491 2002464 2005162 2007890 2010262 2012750 2014797 2015058 2014437 2014187 2014546 2015139 2015923 2016716 2017559 2018111 2019045 2020000 2020711 2021946 2023197 2024481 2025335 2024103 2023431 2023736 2024240 2025046 2026091 2027167 2028071 2029063 2029985 2030506 2031321 2031634 2032996 2034022 2034120 2035252 2037174 2037753 2037704 2038027 2036438 2031450 2028521 2026986 2027319 2028117 2028786 2029523 2030148 2030681 2031341 2031882 2032405 2032821 2033414 2033880 2034335 2034748 2035094 2035422 2035715 2034042 2030171 2025688 2022875 2021426 2020599 2020207 2020194 2020405 2020492 2020770 2021200 2022022 2022584 2023236 2023972 2024732 2025359 2026314 2026920 2027637 2025470 2021182 2017507 2015668 2014548 2013598 2013211 2013316 2013130 2013020 2012917 2013110 2013632 2014130 2014753 2015388 2015951 2016571 2017133 2017565 2016334 2011833 2007363 2005079 2003938 2003419 2003575 2003874 2004199 2004415 2004463 2004821 2005372 2005999 2006729 2007408 2007992 2008846 2009523 2010401 2011027 2011580 2011492 2009057 2004225 2000716 1999011 1998256 1997835 1997976 1998076 1998025 1998083 1998219 1998473 1999244 2000094 2000798 2001723 2002674 2003604 2004530 2005207 2003700 1999318 1995933 1994205 1993252 1992775 1992685 1993085 1993379 1993637 1993818 1994263 1994857 1995339 1996089 1996627 1997455 1998091 1998929 1998561 1993320 1989174 1986953 1985367 1984363 1983901 1984097 1984289 1984246 1984300 1984664 1985092 1985823 1986655 1987491 1988403 1989040 1989740 1988594 1983412 1978308 1976047 1974726 1974199 1973897 1974021 1973678 1972886 1971542 1970242 1969136 1968895 1969107 1969353 1969455 1969674 1969451 1964024 1955016 1948261 1944362 1941466 1939878 1940033 1940839 1941066 1940780 1940077 1939291 1938674 1938879 1939023 1939335 1940121 1941220 1942236 1940295 1932214 1925335 1921510 1919077 1917466 1916315 1916153 1915846 1915274 1914929 1915096 1915816 1916600 1917531 1918645 1919912 1921136 1922521 1923767 1925027 1922836 1914361 1907165 1903258 1901019 1899241 1898060 1897762 1896996 1895836 1895139 1895141 1895443 1896389 1897592 1898800 1900136 1901364 1902724 1904422 1905972 1903983 1895762 1888737 1884944 1882775 1881606 1881662 1882834 1884073 1884429 1884193 1884647 1886138 1887919 1889794 1891683 1894445 1896562 1899029 1901190 1903356 1905623 1907786 1908535 1902617 1895376 1891155 1889125 1888062 1887659 1887931 1888355 1888273 1888269 1888530 1889051 1890393 1891690 1893276 1894747 1896398 1898257 1900138 1901773 1903247 1903362 1896962 1890216 1886466 1885034 1884383 1884450 1885100 1885559 1885731 1885705 1886386 1887302 1888766 1890272 1891897 1893724 1895498 1897188 1899132 1900876 1902517 1899494 1891746 1885980 1883065 1881525 1880591 1880414 1880804 1881205 1881190 1881435 1882203 1883466 1884858 1886676 1888323 1890231 1892149 1894168 1896137 1898334 1900246 1901758 1898199 1891288 1886384 1884302 1883535 1883273 1883679 1884390 1884689 1884544 1884733 1885810 1886991 1888523 1890201 1891966 1893736 1895660 1897485 1899495 1900423 1894986 1887800 1883288 1881166 1879937 1879219 1879600 1880377 1880764 1881082 1881461 1882805 1884185 1886070 1887911 1889931 1891953 1893983 1896208 1898277 1900377 1902477 1903257 1898164 1891453 1887562 1885996 1885384 1885492 1886093 1886957 1887339 1887294 1887804 1888700 1890083 1891551 1893217 1894845 1896886 1898884 1900875 1901962 1897122 1890257 1885906 1883941 1883010 1882653 1883236 1884045 1884449 1884565 1884983 1886141 1887459 1889386 1891246 1893243 1895328 1897532 1899764 1902174 1904490 1904258 1897833 1891653 1888424 1886961 1885988 1885802 1886615 1887398 1887755 1887898 1888643 1889901 1891529 1893227 1895280 1897362 1899431 1901541 1903922 1906031 1908092 1910177 1911147 1905693 1897783 1892235 1888910 1887198 1886292 1886235 1886581 1886355 1885962 1885947 1886593 1887629 1889082 1890492 1892178 1893969 1895705 1897711 1899612 1898644 1891580 1885164 1881624 1879719 1878503 1877947 1878286 1878714 1878531 1878337 1878849 1879891 1881417 1883166 1884945 1886799 1888864 1890793 1892712 1894346 1890470 1882419 1876641 1873582 1871699 1870205 1869891 1870407 1870856 1870829 1870886 1871372 1872391 1873548 1875120 1876845 1878491 1880211 1882204 1883012 1876694 1868626 1863624 1860811 1858751 1857141 1857090 1857684 1858139 1858154 1858615 1859626 1861132 1863030 1864951 1867165 1869183 1871447 1873778 1873605 1866368 1859345 1855284 1853366 1852039 1851621 1851903 1852645 1852499 1852370 1852931 1854142 1855700 1857597 1859475 1861473 1863632 1866019 1867749 1862975 1854870 1849568 1846628 1844851 1843591 1843643 1844353 1844688 1844783 1845133 1846236 1847820 1849735 1851743 1853876 1856056 1858392 1860790 1863228 1865014 1859854 1851946 1846953 1844314 1842416 1841183 1841250 1842270 1842684 1842826 1843416 1844474 1846194 1848087 1850207 1852477 1854676 1857064 1859442 1861799 1864109 1864872 1858876 1851382 1847056 1844968 1843540 1843096 1843466 1844056 1844347 1844216 1844956 1846297 1848010 1849892 1851714 1853945 1856194 1858502 1860855 1863375 1865742 1865418 1858622 1852568 1849230 1847277 1846135 1845682 1846293 1847368 1847892 1848398 1849483 1851065 1853009 1855168 1857443 1859757 1862074 1864593 1867001 1869496 1871876 1874343 1876690 1878239 1874141 1868127 1864298 1862666 1862046 1861678 1862338 1863225 1863467 1863519 1863712 1864918 1866180 1867703 1869451 1871174 1873087 1875073 1877132 1879128 1881236 1882683 1879368 1872903 1868286 1865728 1864332 1863359 1863365 1863933 1864496 1864664 1864944 1865824 1867247 1868790 1870558 1872484 1874447 1876583 1878753 1880803 1883016 1885089 1887236 1889358 1891175 1888215 1882100 1877599 1875541 1874686 1874152 1874550 1875179 1875377 1874875 1874545 1874995 1875953 1877192 1878733 1880420 1881968 1883691 1885517 1887295 1889102 1889162 1883248 1876693 1872295 1870124 1868602 1867679 1867632 1868013 1868081 1867899 1868308 1869092 1870350 1871705 1873311 1875082 1877059 1878847 1880732 1882758 1884694 1886590 1888554 1890370 1888508 1881257 1875527 1872492 1870894 1870010 1869857 1870184 1870375 1869814 1869374 1869613 1870231 1871344 1872623 1873966 1875658 1877230 1878766 1880652 1882383 1881893 1875093 1867910 1863495 1861088 1859360 1858144 1858159 1858346 1858223 1857932 1858105 1859018 1860270 1861830 1863661 1865410 1867356 1869368 1871337 1873429 1875497 1877633 1879677 1882273 1882199 1875752 1868740 1864648 1862613 1861369 1860838 1861134 1861263 1861186 1860535 1860576 1861307 1862337 1863733 1865173 1866722 1868550 1870332 1872156 1874032 1875834 1873834 1866237 1859874 1856378 1854161 1852621 1851896 1852140 1852598 1852392 1852240 1852773 1853854 1855198 1857142 1859049 1861072 1863253 1865520 1867563 1869917 1872019 1874334 1876635 1878633 1876996 1869800 1863980 1860912 1859427 1858416 1858166 1858593 1859135 1858712 1858463 1858724 1859520 1860714 1862071 1863640 1865478 1867152 1868913 1870855 1872775 1873201 1867139 1860207 1855702 1853255 1851581 1850416 1850337 1850648 1850596 1850383 1850592 1851400 1852793 1854596 1856366 1858266 1860445 1862591 1864829 1866889 1869349 1871538 1873789 1875186 1870301 1863585 1859117 1857122 1855903 1855047 1855259 1855841 1856032 1855580 1855797 1856443 1857555 1859080 1860758 1862622 1864738 1866820 1869050 1871257 1873311 1871881 1865304 1859993 1857288 1855701 1854567 1854508 1855168 1855859 1855997 1856212 1857205 1858607 1860459 1862387 1864574 1866866 1869202 1871355 1873414 1875736 1877939 1880158 1882413 1883155 1878047 1872123 1868277 1866273 1864866 1864156 1864276 1864705 1864627 1864195 1864196 1864614 1865282 1866125 1867049 1868409 1869752 1871318 1872942 1874555 1875925 1872773 1865972 1861167 1858399 1856668 1855421 1855105 1855536 1855864 1855560 1855767 1856525 1857605 1859040 1860527 1862164 1863998 1866036 1868096 1870005 1872075 1874026 1876030 1878012 1876626 1870599 1865489 1862738 1861306 1860224 1859734 1860169 1860469 1860366 1860295 1860678 1861489 1862628 1863978 1865374 1866963 1868519 1870234 1872034 1873743 1874948 1870494 1864016 1859560 1857006 1855402 1854276 1854129 1854368 1854364 1854225 1854238 1854952 1855826 1857250 1858666 1860427 1862286 1864193 1866045 1868067 1870067 1871889 1873958 1875698 1874314 1867816 1862080 1858817 1856766 1855490 1854669 1854934 1855044 1854651 1854258 1854322 1854875 1855929 1857063 1858477 1860064 1861655 1863286 1865081 1866975 1868334 1864454 1857113 1851827 1848426 1846301 1844660 1844033 1844189 1844292 1843954 1843825 1844260 1845224 1846763 1848287 1850117 1852114 1854306 1856410 1858552 1860809 1863001 1865119 1867366 1869456 1869848 1863960 1857637 1854102 1852190 1851009 1850207 1850377 1850930 1850803 1850399 1850552 1851320 1852472 1853826 1855334 1856995 1858850 1860651 1862479 1864421 1866319 1864866 1858105 1852501 1849227 1847237 1845733 1845188 1845411 1845965 1846234 1846279 1846865 1848137 1849724 1851606 1853518 1855515 1857647 1859867 1862093 1864274 1867101 1869183 1871302 1873423 1875074 1872018 1865916 1861307 1859355 1858251 1857633 1857763 1858328 1858684 1858563 1858662 1859142 1860029 1861374 1862748 1864184 1865782 1867622 1869242 1871128 1872760 1873849 1869142 1862399 1857954 1855503 1853762 1852755 1852549 1853039 1853300 1853223 1853355 1854211 1855391 1856911 1858642 1860494 1862343 1864388 1866136 1868165 1870132 1872183 1874158 1876122 1876424 1870534 1864087 1860072 1857994 1856843 1856113 1856199 1856452 1856200 1855634 1855620 1856157 1857063 1858144 1859571 1860903 1862474 1864116 1865727 1867449 1869176 1867697 1860128 1853199 1848882 1846128 1843915 1842808 1842555 1842436 1842037 1841648 1841711 1842471 1843677 1845066 1846857 1848552 1850568 1852522 1854603 1856553 1858697 1860848 1862933 1863987 1858315 1850716 1845800 1842970 1840908 1839837 1839742 1840218 1839916 1839351 1839262 1840023 1841062 1842451 1843888 1845678 1847523 1849411 1851202 1853361 1855040 1852028 1844037 1837745 1834019 1831717 1830238 1829555 1829904 1830313 1830320 1830228 1830866 1832095 1833583 1835549 1837541 1839705 1842024 1844457 1846871 1849271 1851813 1854159 1856677 1859043 1861366 1861764 1855387 1848533 1844536 1842547 1841317 1840737 1841064 1841623 1841948 1841665 1841823 1842713 1843942 1845488 1847086 1848838 1850819 1852855 1854736 1856775 1858074 1853377 1846517 1842078 1839501 1838102 1837256 1837411 1838171 1838604 1838795 1839269 1840194 1841861 1843524 1845511 1847631 1849621 1851857 1854050 1856388 1858660 1860930 1861581 1856228 1849947 1846330 1844368 1843045 1842388 1842687 1843389 1843884 1844142 1844708 1845726 1847003 1848864 1850797 1852717 1854845 1856894 1858914 1861150 1863252 1862998 1857118 1851388 1848209 1846308 1845476 1845334 1846022 1846361 1846261 1846188 1846922 1847922 1849394 1850897 1852598 1854503 1856410 1858293 1860298 1861034 1855396 1848773 1844484 1841909 1839849 1838554 1838282 1838866 1839073 1838834 1839205 1840193 1841634 1843351 1845284 1847401 1849559 1851901 1853901 1856246 1858521 1860695 1860292 1854111 1848122 1844707 1842649 1841284 1840541 1840965 1841511 1841472 1841253 1841617 1842550 1844104 1845493 1847276 1849223 1851148 1853215 1855246 1857291 1855821 1849017 1843248 1840039 1837819 1836339 1835602 1836134 1836726 1836636 1836712 1837368 1838542 1840207 1842114 1843861 1846073 1848240 1850441 1852830 1855085 1857459 1859373 1856225 1849628 1844586 1842154 1840161 1839021 1838724 1839450 1839923 1840030 1840264 1841123 1842333 1844032 1845822 1847858 1849883 1852176 1854309 1856631 1858820 1861094 1857346 1850719 1846647 1844485 1843237 1842555 1843031 1843744 1844200 1844014 1844228 1845320 1846597 1848265 1850308 1852150 1854094 1856116 1858343 1860417 1862652 1862141 1855660 1849870 1846485 1844265 1842763 1841890 1842554 1843450 1843918 1844155 1844894 1846053 1847785 1849658 1851507 1853692 1855923 1858027 1860273 1862638 1864900 1867194 1869358 1868018 1861730 1856465 1853879 1852548 1851869 1851826 1852567 1853111 1853142 1853033 1853785 1854824 1856344 1857784 1859446 1861336 1863150 1865120 1867050 1869003 1868516 1862166 1856057 1852594 1850344 1849003 1848218 1848567 1849194 1849344 1849302 1849858 1851073 1852462 1854136 1856085 1858116 1860205 1862320 1864375 1866597 1868709 1870753 1870751 1864632 1858488 1854911 1853051 1852030 1851634 1852199 1852946 1853048 1853107 1853359 1854346 1855689 1857179 1858843 1860552 1862392 1864372 1866293 1868202 1867277 1860384 1854280 1850747 1848772 1847407 1847089 1847698 1848244 1848235 1848269 1849093 1850276 1851821 1853484 1855433 1857428 1859383 1861456 1863470 1865726 1867773 1868214 1862359 1855606 1851396 1849206 1847842 1847131 1847391 1848021 1848539 1848417 1848803 1849706 1851192 1852682 1854486 1856356 1858255 1860192 1862261 1864293 1866341 1863717 1856734 1851311 1848478 1847041 1846068 1846311 1846946 1847451 1847327 1847470 1848301 1849557 1851000 1852787 1854595 1856465 1858510 1860498 1862606 1864632 1862376 1855062 1849087 1845708 1843628 1841970 1841672 1842378 1843006 1843364 1843582 1844318 1845644 1847274 1849069 1851100 1853248 1855548 1857692 1859939 1862143 1864450 1866158 1862014 1855228 1850569 1848240 1846953 1846549 1846900 1847679 1848138 1848069 1848421 1849330 1850765 1852266 1854022 1855931 1857959 1859888 1862000 1864150 1864360 1858359 1851857 1847895 1845671 1843978 1843554 1844177 1844823 1845107 1845246 1846030 1847273 1848868 1850780 1852665 1854648 1856879 1859092 1861367 1863562 1865814 1867992 1870257 1872359 1870031 1863405 1858047 1855148 1853788 1852847 1852740 1853333 1854142 1854347 1854623 1855120 1856340 1857727 1859388 1861026 1863085 1864978 1867027 1869078 1871073 1873102 1874881 1873036 1866713 1861673 1859112 1857802 1857219 1857492 1858319 1858942 1859156 1859181 1859926 1861133 1862521 1864120 1865923 1867591 1869497 1871504 1873399 1875274 1876638 1872994 1866135 1861326 1858702 1857016 1856066 1855879 1856604 1857159 1857372 1857534 1858529 1859804 1861343 1863024 1864868 1866742 1868728 1870639 1872769 1874759 1876833 1878889 1878123 1872049 1866105 1862781 1861248 1860332 1860209 1860722 1861437 1861639 1861593 1862003 1862896 1864163 1865538 1867063 1868650 1870432 1872004 1873895 1875701 1873954 1867361 1861401 1857879 1855891 1854660 1854180 1854768 1855137 1855343 1855196 1855750 1856733 1858182 1859532 1861816 1863550 1865557 1867490 1869487 1871525 1873483 1873956 1868056 1861151 1856905 1854479 1852966 1852055 1852076 1852792 1853000 1852763 1852939 1853819 1855086 1856544 1858069 1859707 1861701 1863504 1865487 1867417 1869469 1868535 1861673 1855473 1851788 1849582 1848379 1847881 1848315 1848725 1848562 1848273 1848669 1849774 1850996 1852482 1854052 1855995 1857971 1859800 1861831 1863867 1863301 1857288 1851917 1848531 1846230 1844275 1843214 1843465 1843913 1843889 1843809 1844369 1845487 1846914 1848461 1850440 1852434 1854493 1856631 1858836 1861054 1863128 1865280 1864789 1858314 1852004 1848208 1846229 1844817 1844444 1845012 1845493 1845509 1845413 1845799 1846535 1847770 1849295 1850724 1852643 1854516 1856582 1858527 1858832 1852519 1845561 1841067 1838358 1836375 1835314 1835426 1836001 1836287 1836318 1836932 1838082 1839653 1841444 1843447 1845604 1847745 1850161 1852561 1855072 1857417 1856784 1849907 1843594 1839751 1837596 1835793 1835000 1835417 1836088 1836169 1836205 1836696 1837691 1839212 1841006 1842952 1844958 1847183 1849462 1851524 1849676 1842869 1837177 1833747 1831505 1830183 1830012 1830762 1831410 1831671 1831928 1832817 1834445 1836128 1838150 1840239 1842743 1844947 1847468 1845692 1839190 1833802 1830586 1828543 1827316 1827264 1828281 1829526 1830207 1830891 1832203 1833980 1836105 1838366 1840860 1843392 1846182 1847653 1843328 1837828 1834333 1832527 1831519 1831350 1832364 1833687 1834886 1835630 1836807 1838450 1840558 1842789 1845252 1847795 1850251 1851680 1847329 1842060 1839146 1837698 1836901 1837016 1838440 1839738 1840526 1841069 1842276 1844028 1845968 1847944 1850219 1852545 1855063 1854648 1849360 1844899 1842300 1840588 1839815 1840083 1841324 1842627 1843418 1844396 1845896 1847757 1849903 1851977 1854378 1856802 1859091 1861764 1864261 1863455 1858169 1853858 1851507 1849963 1848966 1848982 1849840 1851094 1851828 1852608 1853874 1855484 1857346 1859476 1861582 1863716 1865779 1867931 1870001 1869851 1865207 1860690 1857900 1856368 1855563 1855552 1856411 1857286 1857554 1857991 1858779 1860033 1861664 1863352 1865149 1867031 1869158 1871154 1871572 1867022 1862013 1858979 1857092 1856034 1855659 1856382 1857144 1857529 1857777 1858286 1859456 1860800 1862351 1863956 1865991 1867968 1869892 1871871 1871782 1866483 1861334 1858085 1855982 1854175 1853570 1854036 1854744 1855185 1855563 1856265 1857470 1859024 1860728 1862562 1864692 1866936 1868956 1871064 1873353 1875327 1872533 1866967 1863072 1860906 1859847 1859466 1859733 1860606 1861061 1860863 1861070 1861941 1863222 1864491 1866163 1867647 1869430 1871313 1873148 1874186 1869633 1863948 1860028 1858021 1856518 1855762 1856186 1856928 1856981 1856958 1857457 1858361 1859831 1861451 1863201 1865106 1867323 1869442 1871657 1872850 1868672 1862668 1858553 1855982 1854332 1853207 1853302 1854238 1854667 1854941 1855491 1856532 1858085 1859845 1861804 1863882 1866011 1868274 1870546 1872968 1875139 1877451 1877353 1872257 1867228 1864356 1863073 1862425 1862244 1862991 1863833 1863953 1864030 1864743 1865801 1867301 1868928 1870644 1872484 1874288 1876328 1878263 1880198 1878374 1872721 1868240 1865784 1864574 1863860 1864051 1864679 1865131 1864838 1865045 1865651 1866957 1868279 1869851 1871442 1873685 1875530 1877576 1879506 1878178 1871879 1866452 1863238 1861098 1859377 1858721 1859020 1859581 1859684 1859603 1860253 1861229 1862575 1864169 1865895 1867790 1869809 1871865 1873992 1876136 1878276 1880421 1882255 1879304 1872563 1867576 1864929 1863355 1862173 1862013 1862524 1862990 1862899 1862921 1863481 1864482 1865988 1867407 1869096 1870918 1872830 1874740 1876788 1878842 1880036 1875094 1868946 1865037 1863241 1862507 1862552 1863594 1864704 1865013 1864950 1865152 1866138 1867603 1869286 1870971 1872905 1874805 1876829 1878689 1875795 1869425 1864369 1861702 1860424 1860111 1860945 1862194 1862633 1861942 1861972 1862630 1863779 1865168 1866669 1868354 1869949 1871448 1867638 1860941 1856233 1854163 1853060 1852496 1852828 1853825 1854179 1853768 1853707 1854446 1855616 1857086 1858944 1860647 1862576 1864685 1866590 1864572 1856884 1850568 1847101 1845102 1843656 1843322 1844069 1844678 1844661 1845101 1846205 1847610 1849483 1851518 1853560 1855792 1858076 1860448 1862797 1865340 1866996 1862179 1855000 1850235 1847896 1846467 1845597 1845880 1846640 1847418 1847876 1848406 1849511 1851092 1853070 1855140 1857235 1859550 1862060 1864438 1866911 1869296 1871906 1874407 1876497 1874052 1868495 1864484 1862742 1862169 1862045 1862522 1863400 1864356 1865016 1865603 1866818 1868192 1870007 1871781 1873957 1876070 1878228 1880272 1882557 1884775 1885953 1882713 1878973 1876962 1876425 1876572 1877327 1878395 1879593 1880272 1880904 1881694 1883020 1884507 1886177 1887941 1889756 1891568 1893552 1895094 1893116 1889453 1887078 1886114 1885873 1885958 1886638 1887678 1888709 1889857 1891299 1892883 1894540 1896226 1897828 1899474 1901097 1902851 1904528 1906565 1908202 1907287 1903848 1900892 1899675 1899224 1899043 1899368 1900073 1900687 1900957 1901260 1901835 1902726 1903906 1905133 1906455 1907695 1909182 1910764 1912087 1912890 1909778 1905253 1902087 1900344 1899349 1898777 1898691 1898838 1898568 1898198 1898111 1898358 1899147 1899949 1900872 1902137 1903331 1904524 1906029 1907364 1908896 1906827 1901014 1895551 1892081 1889991 1888307 1887213 1887103 1887014 1886714 1886415 1886404 1886903 1887807 1888838 1890308 1891526 1893033 1894617 1896143 1897999 1899720 1901327 1902968 1904628 1904360 1898311 1892121 1888464 1886723 1885815 1885513 1885774 1885976 1885699 1885203 1884967 1885435 1886350 1887294 1888503 1889798 1891167 1892598 1894300 1894316 1888261 1881207 1876694 1874073 1872490 1871414 1871583 1872011 1872066 1871774 1871916 1872663 1873772 1874993 1876536 1878145 1880009 1881871 1883687 1885828 1887839 1889580 1887488 1880178 1873679 1870285 1868062 1866929 1866821 1867135 1867620 1867726 1867851 1868397 1869338 1870689 1872378 1874208 1875958 1878000 1879976 1882110 1884137 1886191 1888196 1890256 1889435 1882829 1876494 1873010 1871695 1870947 1871132 1871728 1872359 1872259 1871936 1872186 1872975 1874054 1875416 1876812 1878370 1880136 1881912 1883676 1884675 1879739 1872471 1867475 1864917 1863640 1862805 1863082 1863667 1864106 1864069 1864253 1865034 1866350 1867880 1869505 1871277 1873375 1875416 1877564 1879563 1881715 1883706 1884364 1878389 1871312 1866988 1864845 1863574 1862955 1863180 1863889 1864334 1864554 1864815 1865901 1867091 1868660 1870301 1872200 1874192 1876257 1878372 1880487 1882553 1884723 1886769 1888999 1890196 1885609 1879166 1874986 1873117 1872434 1872423 1873021 1873896 1874320 1874066 1874082 1874788 1875728 1877087 1878520 1880052 1881919 1883497 1885354 1886305 1881130 1874343 1869806 1867304 1866095 1865471 1865741 1866362 1866681 1866668 1866818 1867737 1868952 1870295 1871860 1873835 1875634 1877624 1879516 1881678 1883084 1878462 1870875 1865528 1862704 1861034 1859943 1859720 1860306 1860910 1861035 1861085 1861713 1862849 1864454 1866123 1867938 1870085 1872214 1874233 1876263 1878530 1880692 1878704 1871503 1865419 1861924 1860222 1859254 1859085 1859570 1860108 1859902 1859607 1859813 1860821 1861873 1863207 1864711 1866435 1868248 1870096 1871329 1866115 1858611 1853231 1850188 1848457 1847427 1847636 1848181 1848455 1848307 1848360 1849192 1850537 1852229 1853829 1855806 1857839 1859940 1862150 1864438 1866801 1867695 1861524 1853915 1848965 1846243 1844369 1843237 1843288 1843947 1844407 1844356 1844770 1845598 1847002 1848718 1850794 1852858 1855101 1857393 1859834 1862101 1864607 1866984 1869428 1870438 1864608 1857712 1853576 1851541 1850617 1850163 1850758 1851817 1851834 1851688 1852209 1853324 1854782 1856339 1858265 1860189 1862107 1864137 1866442 1868453 1867026 1860347 1854320 1851213 1849688 1848769 1848789 1849612 1850351 1850426 1850454 1851165 1852445 1853825 1855671 1857666 1859734 1861758 1863986 1866195 1867997 1863664 1856430 1851627 1848849 1847236 1845908 1845860 1846578 1847337 1847668 1848000 1848786 1850040 1851826 1853618 1855710 1857846 1860194 1862574 1864945 1867301 1869731 1872165 1874438 1873279 1866343 1860444 1857023 1855322 1854047 1853677 1854221 1854790 1855158 1855198 1855574 1856580 1858001 1859603 1861383 1863407 1865485 1867585 1869681 1872019 1874056 1876176 1876756 1870670 1864209 1860126 1858081 1857000 1856437 1856894 1857616 1857589 1857213 1857611 1858304 1859514 1860916 1862696 1864470 1866308 1868301 1870286 1872438 1873922 1869224 1861831 1856715 1853916 1852150 1850945 1850833 1851517 1852031 1852113 1852328 1853304 1854564 1856263 1857965 1860057 1862023 1864311 1866469 1868819 1870911 1873101 1874988 1870671 1863355 1858175 1855483 1854045 1853171 1853247 1853866 1854609 1854648 1854973 1855639 1856742 1858371 1860085 1862086 1864060 1866221 1868324 1870587 1872674 1874989 1876620 1872738 1865800 1860992 1858474 1857448 1856987 1857323 1858279 1858558 1858321 1858288 1858965 1860035 1861452 1863101 1864882 1866706 1868572 1870622 1872452 1872300 1865460 1858651 1854211 1851678 1850173 1849198 1849399 1850153 1850337 1850417 1850767 1851828 1853175 1855011 1856888 1858884 1861017 1863175 1865471 1867668 1869904 1869947 1862931 1855572 1851131 1848603 1846909 1845714 1845778 1846596 1847032 1846962 1847440 1848290 1849825 1851479 1853441 1855573 1857827 1860008 1862199 1864505 1866820 1867984 1862121 1854748 1850372 1850820 1854288 1857738 1860432 1862120 1862317 1861701 1861583 1862375 1864049 1866275 1868280 1870144 1872191 1873945 1875554 1875022 1867747 1860246 1855458 1852564 1850326 1849019 1848699 1849135 1848908 1848576 1848664 1849608 1851044 1853319 1856232 1860226 1864174 1867573 1869916 1866287 1858204 1852380 1848439 1845672 1843519 1842871 1843133 1843507 1843336 1843404 1844081 1845463 1846996 1848709 1850872 1853133 1855457 1857477 1853859 1846696 1841579 1838930 1837075 1835738 1835619 1836708 1837649 1838017 1838533 1839684 1841252 1843233 1845426 1847776 1850168 1851513 1846409 1839844 1836102 1834092 1832803 1832405 1833468 1834852 1835903 1836544 1837619 1839157 1841146 1843463 1845717 1848113 1850669 1853115 1850720 1844174 1839317 1836682 1835257 1834580 1835002 1836284 1837346 1837864 1839152 1841752 1845618 1850688 1856721 1862122 1866674 1870169 1872676 1874577 1870877 1863868 1858762 1855536 1853274 1851523 1851116 1851637 1852186 1852335 1852677 1853486 1854702 1856403 1858465 1860645 1863455 1865816 1868150 1870720 1873137 1875298 1872522 1867073 1863468 1861465 1860358 1859648 1859776 1860619 1861626 1862143 1862611 1863565 1865036 1866799 1868518 1870741 1872704 1874857 1877087 1879449 1881617 1880509 1875682 1871768 1869774 1868641 1868027 1868166 1869014 1869820 1870236 1870598 1871435 1872778 1874099 1875727 1877734 1879561 1881517 1883541 1885704 1887756 1889950 1891820 1889555 1884488 1880877 1878953 1877715 1877196 1877408 1878069 1878622 1878670 1878915 1879472 1880479 1881825 1883151 1884717 1886321 1887854 1889800 1891542 1893289 1895273 1894929 1889423 1884282 1881276 1879409 1878315 1878059 1878537 1879070 1878887 1878717 1878980 1879897 1880918 1882379 1883619 1885298 1887163 1888870 1890570 1892466 1894341 1896176 1897952 1899506 1895637 1888985 1884152 1881752 1880290 1879486 1879491 1879924 1880172 1879972 1879828 1880231 1881114 1882255 1883532 1885131 1886614 1888262 1889827 1891609 1893369 1894989 1896695 1896341 1890039 1883736 1880071 1878283 1877344 1877035 1877647 1877975 1878066 1877758 1877930 1878733 1879788 1881044 1882583 1884233 1885980 1887657 1889577 1891369 1893280 1895049 1896816 1898541 1896146 1888853 1883027 1879827 1878262 1877318 1877063 1877580 1878066 1878091 1877878 1878103 1878863 1880074 1881361 1882843 1884455 1886047 1887809 1889621 1891357 1893129 1895033 1896616 1893799 1886463 1881137 1878202 1876895 1876201 1876203 1876949 1877358 1877259 1877132 1877719 1878563 1879704 1881227 1883038 1884523 1886415 1888134 1890179 1891885 1893788 1895525 1897330 1896525 1889209 1882605 1878598 1876508 1875244 1874609 1874840 1875354 1875487 1875182 1875306 1875905 1877047 1878296 1879836 1881438 1883180 1885123 1886914 1888890 1890577 1892504 1894360 1896234 1896741 1890711 1883866 1879759 1878146 1877272 1876921 1877372 1878038 1878169 1877841 1877766 1878360 1879160 1880339 1881652 1883220 1884645 1886324 1888038 1889755 1891175 1887088 1879486 1873859 1870790 1868920 1867645 1867196 1867713 1868110 1867986 1867732 1868098 1868907 1870172 1871569 1873191 1874755 1876638 1878439 1880516 1882349 1884236 1884589 1878014 1870912 1866428 1863771 1862126 1860929 1860946 1861372 1861502 1861059 1860925 1861559 1862495 1863791 1865190 1866659 1868315 1870052 1871859 1873807 1875555 1873736 1866218 1859767 1856155 1853729 1852178 1851814 1852132 1852310 1851952 1851535 1851953 1852865 1854061 1855542 1857176 1858962 1860861 1862822 1864889 1867094 1868477 1863530 1855921 1850595 1847404 1844943 1843306 1842889 1843472 1844046 1844160 1844211 1845003 1846164 1847732 1849719 1851662 1853934 1856256 1858530 1860950 1863362 1865922 1867928 1864447 1857477 1852853 1850252 1848835 1848166 1848419 1849215 1849610 1849268 1849446 1850555 1852041 1853714 1855691 1857452 1859482 1861303 1863417 1865380 1862985 1857459 1853033 1850045 1847597 1845788 1845214 1845904 1846685 1847313 1848541 1850359 1852410 1854467 1856908 1859115 1861523 1864015 1866494 1868873 1871106 1869543 1863679 1859034 1856259 1854405 1853030 1852616 1853189 1854043 1854594 1855106 1856059 1857523 1859382 1861530 1863755 1866393 1868683 1871330 1873971 1876422 1874988 1869628 1865675 1863670 1862075 1860982 1860697 1860941 1861470 1861240 1861250 1861649 1862583 1863948 1865567 1867148 1869065 1871057 1872936 1875239 1877104 1875898 1870193 1865156 1861895 1859721 1858183 1857531 1858017 1858665 1859031 1859118 1859805 1860945 1862571 1864265 1866203 1868094 1870261 1872460 1874667 1875084 1870330 1865133 1862091 1860115 1858679 1858231 1858782 1859621 1860111 1860308 1860849 1862045 1863812 1869959 1876534 1881568 1885069 1887874 1889855 1887506 1881661 1877654 1875611 1874288 1873862 1874371 1875264 1875806 1875774 1875861 1876244 1877170 1878055 1879045 1880123 1881361 1882754 1884293 1883810 1878136 1872286 1868306 1865545 1863595 1862235 1862272 1862635 1862859 1862859 1863077 1863988 1865169 1866739 1868453 1870286 1872333 1874316 1876357 1878475 1878374 1872834 1867009 1863308 1860848 1859048 1857973 1858164 1858606 1858795 1858751 1858985 1859874 1861270 1862852 1864513 1866498 1868452 1870409 1872354 1874689 1876995 1878277 1873927 1867187 1862412 1859474 1857431 1856110 1855717 1856253 1856378 1856107 1856207 1856712 1858024 1859483 1861239 1863139 1865044 1867123 1869265 1871543 1873652 1876052 1878330 1879955 1875332 1868211 1863333 1860659 1858935 1857742 1857591 1858168 1858529 1858325 1858538 1859229 1860571 1862113 1863875 1865790 1867948 1870026 1872182 1874417 1876766 1878910 1881293 1880645 1874334 1868281 1865126 1863380 1862623 1862485 1863073 1863577 1863623 1863470 1864077 1865062 1866493 1868151 1869963 1871836 1873934 1876000 1878325 1880493 1882189 1878870 1872840 1868717 1866720 1865637 1866069 1867440 1869175 1870882 1871801 1872763 1873989 1876263 1878738 1881262 1884563 1889737 1895051 1899276 1902310 1904201 1905663 1904749 1897438 1890202 1885474 1882572 1880382 1879049 1878676 1878465 1878092 1877293 1876972 1877353 1878085 1879280 1880580 1882168 1883764 1885536 1887383 1889319 1889853 1883815 1876816 1872432 1870458 1869614 1869330 1870296 1871376 1872161 1873384 1877117 1882328 1888088 1893142 1897418 1900298 1902434 1903631 1904371 1904368 1898025 1887802 1880270 1875565 1872447 1870095 1869084 1868967 1868522 1867524 1867151 1868607 1872181 1877482 1882719 1886703 1889705 1891783 1893292 1891392 1882578 1875168 1871206 1869196 1868044 1867862 1868949 1869849 1870480 1870875 1871723 1873303 1874647 1876334 1877931 1879773 1881720 1883556 1881260 1873676 1868241 1865214 1863506 1862639 1862988 1864499 1865642 1866119 1866429 1867042 1868027 1868872 1869763 1870916 1872136 1873290 1868456 1859858 1853722 1849941 1847366 1845646 1845383 1845780 1845924 1845431 1845545 1846364 1847699 1849339 1851300 1853312 1855567 1857605 1854686 1846769 1840897 1837677 1835562 1834363 1834633 1835977 1837334 1837999 1838814 1840146 1842006 1844141 1846482 1849103 1851618 1854351 1857028 1859933 1862611 1860982 1853636 1847614 1844297 1842054 1840626 1840404 1841131 1842384 1843021 1843624 1844583 1846228 1848294 1850310 1852846 1855169 1857856 1860557 1863158 1865942 1868719 1871561 1874154 1872676 1865856 1860458 1857705 1856380 1855347 1855465 1856215 1857094 1857613 1858150 1859000 1860434 1862129 1863968 1866099 1868320 1870638 1873011 1875436 1877924 1880364 1882853 1885398 1886108 1880666 1875091 1871899 1870422 1869906 1869940 1870930 1871792 1872181 1872399 1872944 1874266 1875588 1877248 1879045 1880847 1882786 1884671 1886831 1889051 1890781 1888004 1881805 1877287 1875408 1874329 1874022 1874529 1875666 1876248 1876471 1876776 1877703 1879291 1881579 1884805 1888372 1891978 1895123 1897611 1899551 1901308 1902978 1903614 1898895 1893470 1890236 1888838 1887844 1887353 1887875 1888801 1888992 1889035 1889021 1889646 1890554 1891706 1893101 1894564 1896172 1897894 1899448 1901131 1902888 1900768 1893921 1887783 1884346 1882199 1881037 1881106 1881525 1881651 1881336 1881201 1881675 1882528 1883828 1884966 1886477 1888118 1889917 1891668 1893521 1894751 1889781 1882262 1876818 1873889 1872692 1872157 1872545 1873498 1874246 1874243 1874648 1875681 1877231 1878998 1880802 1882572 1884228 1886137 1888116 1890040 1891994 1892914 1887223 1879950 1874996 1872386 1870687 1869799 1869882 1870292 1870543 1870011 1869849 1870393 1871406 1872533 1873868 1875568 1877124 1878980 1880925 1882783 1883566 1877451 1870019 1865189 1862632 1860811 1859865 1860186 1860750 1861085 1860849 1861085 1861883 1863024 1864669 1866166 1868026 1870148 1872283 1874612 1876686 1878901 1881340 1883021 1878853 1871445 1866442 1863596 1862029 1861444 1861480 1862404 1863054 1862976 1863278 1863982 1865083 1866410 1868204 1869949 1871993 1874081 1876051 1878293 1880637 1882637 1881087 1874427 1868791 1865151 1864007 1863572 1864206 1865099 1865694 1865641 1866048 1866716 1868138 1869641 1871370 1873162 1875227 1877198 1879359 1881525 1883718 1883802 1877524 1871043 1866899 1864624 1863116 1862390 1863025 1863688 1864163 1864364 1864584 1865585 1866908 1868509 1870331 1872324 1874379 1876609 1878742 1880950 1883419 1885824 1887866 1886336 1879576 1873815 1870599 1868786 1868080 1867840 1868669 1869339 1869660 1869562 1870191 1871163 1872348 1873816 1875686 1877539 1879303 1881175 1883227 1885278 1887037 1884156 1877075 1871875 1868758 1867209 1866371 1866669 1867293 1867915 1867846 1868046 1868626 1869740 1871185 1872913 1874586 1876547 1878587 1880678 1882908 1885023 1887173 1889546 1891247 1887301 1880075 1874693 1871774 1870183 1869209 1869296 1869763 1870490 1870755 1870963 1871464 1872754 1873936 1875767 1877438 1879361 1881352 1883399 1885620 1887850 1889957 1892232 1894406 1896225 1893119 1886663 1881580 1879207 1878161 1877753 1878390 1879322 1879876 1879850 1880098 1880700 1881805 1882938 1884481 1885907 1887842 1889658 1891446 1893468 1895479 1897248 1895462 1888998 1883509 1880334 1878633 1877686 1877452 1877883 1878599 1878786 1878792 1879027 1879946 1881063 1882595 1884143 1885980 1887586 1889577 1891598 1893637 1895547 1897666 1899666 1900574 1895551 1888916 1884340 1881909 1880608 1879897 1880239 1880731 1881216 1881153 1881080 1881645 1882415 1883565 1885100 1886613 1888250 1889971 1891853 1893605 1895570 1897499 1898229 1892975 1886042 1881289 1878951 1877694 1877034 1877396 1877865 1878062 1877663 1877610 1878063 1878919 1880058 1881417 1882988 1884588 1886367 1888102 1889994 1891924 1892391 1886176 1878661 1873291 1870200 1868051 1866933 1866717 1867082 1867415 1867011 1866831 1867395 1868411 1869696 1871243 1873052 1874913 1876800 1878815 1880950 1882986 1885118 1887273 1888215 1882206 1874639 1869779 1867131 1865743 1865003 1865317 1865867 1865917 1865479 1865436 1865976 1866843 1868117 1869579 1871199 1872815 1874621 1876620 1878689 1880392 1876599 1869077 1863142 1859598 1857469 1856096 1855903 1856262 1856876 1856654 1856809 1857370 1858457 1859870 1861600 1863365 1865445 1867491 1869751 1871931 1874292 1876766 1878743 1874989 1867380 1861620 1858621 1856830 1855667 1855689 1856494 1857340 1857508 1857563 1858310 1859282 1860864 1862753 1864530 1866705 1868849 1871094 1873378 1875697 1878207 1878862 1873072 1866092 1861710 1859658 1858596 1858299 1859147 1860066 1860568 1860486 1860605 1861591 1862837 1864485 1866211 1868128 1870193 1872207 1874447 1876651 1878097 1873187 1865817 1860239 1857183 1855221 1854302 1854513 1855192 1855909 1856060 1856164 1856929 1858200 1859762 1861649 1863707 1865803 1868285 1870476 1873000 1875400 1877902 1879653 1876009 1868537 1862825 1859813 1858217 1857581 1857864 1858846 1859667 1859689 1859917 1860629 1861785 1863371 1865067 1867002 1868997 1871098 1873168 1875547 1877136 1872873 1865296 1859935 1857139 1855468 1854801 1855165 1856145 1856806 1856752 1856905 1857673 1858926 1860520 1862246 1864388 1866325 1868682 1870941 1873224 1875431 1874983 1867928 1860636 1856121 1853543 1852088 1851284 1851829 1852642 1853211 1853487 1853806 1854794 1856246 1857899 1859813 1861940 1864014 1866205 1868361 1870598 1873021 1875358 1877099 1873147 1865335 1859529 1856374 1854566 1853811 1853762 1854322 1854741 1854227 1854114 1854549 1855492 1856905 1858445 1860290 1862282 1864239 1866137 1868397 1870594 1869269 1861791 1854691 1850559 1847997 1846246 1845377 1845804 1846625 1846902 1846959 1847301 1848244 1849838 1851467 1853611 1855622 1858009 1860357 1862862 1865363 1867956 1870571 1870708 1863930 1856923 1852526 1850150 1848755 1848262 1848742 1849542 1850021 1850026 1850374 1851371 1852745 1854443 1856419 1858408 1860537 1862817 1865045 1867643 1869811 1869803 1863113 1856309 1852228 1850103 1849000 1848612 1849335 1850379 1850812 1850881 1851412 1852338 1853950 1855669 1857710 1859809 1862083 1864325 1866682 1868970 1871524 1873960 1874696 1868558 1861016 1856151 1853529 1852049 1851474 1851740 1852611 1853426 1853567 1853878 1854631 1856122 1857630 1859727 1861656 1864354 1866582 1869093 1871331 1873921 1876276 1878574 1878699 1872185 1865173 1861373 1859417 1858441 1858277 1859175 1860119 1860496 1860422 1860784 1861611 1862806 1864455 1866156 1867999 1869982 1872009 1874019 1876220 1878572 1880015 1875119 1867336 1861779 1858722 1857036 1856029 1856175 1856767 1857332 1857268 1857294 1857721 1858958 1860394 1862028 1863893 1865947 1868124 1870206 1872600 1875015 1877346 1879898 1882169 1884125 1881279 1873722 1867455 1863988 1862083 1861249 1861089 1861785 1862509 1862458 1862307 1862580 1863520 1864785 1866225 1867921 1869827 1871746 1873653 1875762 1877946 1880010 1878349 1870940 1864223 1860525 1858372 1857108 1857006 1857673 1858335 1858222 1857864 1858168 1859155 1860359 1861829 1863650 1865504 1867446 1870095 1872090 1874246 1872104 1864139 1857177 1852604 1849742 1847693 1846471 1846625 1846918 1846883 1846466 1846591 1847499 1848776 1850398 1852088 1854142 1856079 1858179 1860428 1862737 1864781 1861996 1854070 1847650 1843523 1841134 1839335 1838810 1839277 1839525 1839147 1838756 1839142 1840072 1841466 1843030 1844739 1846661 1848834 1851090 1853256 1851436 1843904 1837413 1833329 1830743 1829002 1828422 1829175 1829952 1829864 1829924 1830622 1831838 1833691 1835689 1837788 1840028 1842508 1844946 1847604 1849926 1846916 1839508 1833661 1830074 1827496 1825762 1825300 1826130 1827188 1827671 1828106 1829154 1830883 1832738 1835217 1837670 1840442 1843087 1846055 1848892 1851774 1854528 1857549 1859476 1855343 1849470 1845226 1842990 1841454 1840700 1841041 1842408 1843110 1843451 1844095 1845526 1847180 1849191 1851370 1853665 1856011 1858437 1860928 1863468 1866075 1866997 1862884 1858084 1855072 1853493 1852626 1852227 1853173 1854140 1854858 1855384 1856074 1857525 1858959 1860893 1862664 1864881 1866992 1869339 1871549 1873879 1876278 1878132 1875735 1871046 1867662 1865705 1864541 1863820 1864041 1864819 1865810 1866390 1867164 1868129 1869686 1871350 1873089 1875252 1877326 1879472 1881638 1883894 1886154 1888352 1890634 1892902 1893034 1889341 1885386 1883247 1882299 1881655 1881595 1882306 1883094 1883254 1883438 1883874 1884836 1885923 1887301 1888853 1890594 1892174 1894038 1895851 1897783 1899774 1899849 1895716 1891434 1888577 1886792 1885537 1885049 1885290 1885860 1886093 1885967 1886345 1887048 1888142 1889470 1890713 1892371 1893978 1895677 1897576 1899295 1901272 1903225 1903612 1899055 1893894 1890420 1888238 1886722 1885643 1885599 1885801 1885686 1885139 1885111 1885480 1886381 1887536 1888697 1890034 1891639 1893263 1894885 1896236 1892668 1886433 1881303 1878180 1875952 1874273 1873724 1873977 1874026 1873635 1873316 1873838 1874722 1875891 1877391 1878724 1880560 1882484 1881818 1875964 1869958 1865909 1863514 1861703 1860878 1861104 1861831 1862045 1862113 1862780 1863936 1865458 1867309 1869252 1871248 1873189 1870161 1863666 1858478 1855623 1853697 1852563 1852518 1853329 1853817 1853802 1854170 1854928 1856413 1857989 1859830 1861914 1864163 1865919 1862073 1855164 1850438 1847400 1845155 1843674 1843803 1844894 1845697 1846228 1846758 1848063 1849628 1851767 1854040 1856326 1858759 1861126 1863639 1866366 1868631 1865614 1858966 1854204 1851332 1849314 1847932 1847693 1848518 1849537 1850011 1850690 1851711 1853278 1855262 1857270 1859522 1861852 1864399 1866779 1869343 1871910 1873797 1869997 1864423 1860681 1858747 1857683 1857150 1857744 1858694 1859783 1860260 1860783 1862113 1863703 1865588 1867587 1869730 1871847 1874304 1876621 1879077 1881473 1883640 1881237 1876121 1872360 1870652 1869604 1869219 1869791 1870790 1871416 1871393 1871733 1872597 1874038 1875561 1877227 1879084 1881026 1883055 1885171 1887210 1885912 1880728 1876072 1873455 1871814 1870675 1870613 1871108 1871997 1872153 1872366 1872958 1874322 1875803 1877580 1879382 1881281 1883214 1885480 1887582 1889798 1891928 1894174 1896294 1895465 1889857 1884692 1881537 1879967 1878896 1878355 1878762 1879310 1879488 1879506 1879787 1880461 1881743 1883352 1884911 1886705 1888534 1890432 1892305 1894308 1896275 1898168 1900081 1897906 1891596 1886303 1883407 1881902 1880854 1880716 1881198 1881400 1881047 1880752 1881002 1882007 1883270 1884705 1886229 1887838 1889635 1891485 1893318 1895341 1897280 1899231 1897509 1890474 1884192 1880341 1878102 1876419 1875597 1875762 1876044 1876072 1875772 1876010 1876610 1877837 1879280 1880963 1882530 1884489 1886424 1888557 1890479 1892567 1894621 1896751 1898896 1900393 1896469 1888981 1883548 1880786 1879474 1878713 1878672 1879180 1879446 1878832 1878385 1878703 1879380 1880477 1881742 1883243 1884881 1886563 1888395 1890272 1892061 1893928 1894625 1888543 1881151 1876176 1873381 1871906 1870871 1870978 1871587 1871835 1871535 1871643 1872035 1873242 1874471 1876130 1877797 1879666 1881553 1883565 1885713 1887742 1890129 1892266 1894385 1895274 1889443 1882318 1877339 1874929 1873612 1873081 1873033 1873789 1874159 1873746 1873824 1874400 1875258 1876609 1878104 1879800 1881466 1883421 1885289 1887306 1889224 1891474 1892643 1887504 1880277 1875378 1873112 1871979 1871494 1872103 1872738 1873014 1872676 1872851 1873590 1874719 1875998 1877736 1879276 1881127 1882982 1885072 1886906 1885103 1877618 1871082 1867321 1864868 1863387 1862527 1862953 1863366 1863403 1863187 1863439 1864223 1865656 1867052 1868773 1870575 1872531 1874842 1876903 1879181 1881388 1883605 1885125 1880067 1872395 1867334 1864373 1862740 1861657 1861436 1862061 1862559 1862453 1862459 1862910 1863965 1865454 1867075 1868832 1870849 1872860 1875049 1877248 1879499 1881754 1882265 1876138 1869387 1865354 1863380 1862358 1861850 1862492 1863234 1863320 1862978 1863123 1863978 1865194 1866720 1868365 1870124 1872088 1874095 1876195 1878285 1878514 1871935 1865098 1860982 1858386 1856633 1855665 1855849 1856686 1856926 1856922 1857254 1858026 1859511 1861079 1862854 1864818 1867527 1869789 1872012 1874377 1876701 1879166 1881329 1879393 1872301 1866539 1863207 1861259 1860016 1859487 1860124 1860701 1861025 1860873 1861383 1862296 1863737 1865432 1867139 1869041 1871099 1873243 1875287 1877547 1879870 1882155 1883456 1878162 1871855 1867522 1865431 1864398 1863950 1864178 1865052 1865417 1865104 1865397 1866099 1867289 1868785 1870329 1872226 1874145 1876058 1878149 1880370 1882245 1879354 1872534 1867259 1864159 1862189 1861073 1860844 1861338 1862067 1862226 1862400 1862844 1864115 1865510 1867285 1869174 1871127 1873331 1875487 1877905 1880251 1882622 1884919 1886246 1881168 1874722 1870333 1868044 1866655 1865891 1865991 1866740 1867074 1866900 1867179 1867897 1869029 1870632 1872251 1874090 1876029 1877904 1879878 1882085 1884292 1886285 1882859 1876419 1871453 1869019 1867649 1866859 1866948 1867732 1868188 1868044 1867871 1868484 1869469 1870814 1872309 1874215 1875963 1877861 1879799 1882066 1884028 1882174 1875401 1869849 1866276 1864074 1862507 1861893 1862144 1862894 1862988 1863011 1863625 1864762 1866187 1867879 1869723 1871676 1873817 1875960 1878121 1880390 1882660 1884970 1886670 1882654 1875745 1870947 1868343 1866646 1865817 1865588 1866318 1866804 1866962 1867065 1867470 1868665 1869995 1871497 1873400 1875308 1877353 1879432 1881436 1883853 1885928 1888140 1890004 1886769 1880183 1875638 1873065 1871771 1871425 1871549 1872329 1872822 1872427 1872387 1872615 1873684 1874917 1876399 1877984 1879546 1881509 1883475 1885351 1887444 1887214 1880927 1874521 1870383 1867982 1866346 1865343 1865754 1866209 1866538 1866251 1866463 1867175 1868276 1869835 1871434 1873292 1875266 1877187 1879429 1881618 1883881 1886213 1888375 1890582 1891357 1885412 1878286 1873636 1870995 1869495 1868633 1868398 1868899 1869303 1868985 1868989 1869473 1870359 1871590 1873104 1874804 1876704 1878552 1880580 1882708 1884852 1887044 1889100 1887349 1880395 1874190 1870572 1868772 1867642 1867265 1867865 1868301 1867949 1867433 1867581 1868340 1869279 1870655 1872227 1873919 1875641 1877485 1879395 1881143 1877731 1870144 1863948 1860155 1857735 1856094 1855196 1855411 1855675 1855414 1855039 1855203 1856163 1857347 1858664 1860384 1862170 1864174 1866237 1868473 1870692 1872566 1869150 1861402 1855427 1851863 1849421 1847619 1847007 1847434 1847985 1847909 1847707 1848121 1849123 1850718 1852402 1854437 1856368 1858584 1860935 1863127 1865597 1866699 1861454 1854704 1850180 1847771 1846321 1845504 1845904 1846631 1846867 1846720 1846986 1847906 1849332 1851060 1852739 1854754 1856927 1859146 1861511 1861903 1856266 1850110 1846129 1843804 1842152 1841330 1841787 1842619 1843166 1843449 1843999 1845155 1846788 1848776 1850886 1853135 1855511 1858054 1860514 1863019 1865697 1868312 1869304 1864466 1858557 1855020 1852808 1851491 1850718 1850985 1851949 1852486 1852962 1853310 1854349 1855875 1857681 1859677 1861751 1864071 1866244 1868511 1870909 1873356 1875600 1874687 1869506 1864933 1862680 1861571 1860831 1861052 1862027 1862721 1862982 1863101 1863985 1865189 1866871 1868412 1870449 1872353 1874386 1876542 1878747 1879944 1876628 1871654 1868083 1866157 1864734 1864005 1864424 1865265 1866047 1866209 1866724 1867573 1869064 1870661 1872505 1874379 1876363 1878553 1880659 1882762 1885193 1887331 1888761 1885515 1880533 1877283 1875636 1874492 1873734 1874021 1874617 1875264 1875390 1875775 1876595 1877744 1879276 1880770 1882589 1884449 1886366 1888204 1890352 1892395 1892668 1888562 1884020 1881377 1879733 1879140 1879280 1879947 1880617 1880377 1880330 1880820 1881711 1882959 1884312 1885876 1887386 1889115 1890890 1891304 1886959 1881720 1878011 1875658 1873736 1872551 1872614 1872985 1873195 1872943 1872992 1873579 1874797 1876100 1877483 1879240 1881056 1882902 1884802 1886607 1888796 1890156 1886317 1880330 1875846 1873114 1871085 1869508 1868980 1869325 1869682 1869655 1869650 1870109 1871099 1872301 1874024 1875707 1877585 1879466 1881335 1883568 1885692 1887738 1887967 1882998 1877350 1874093 1872225 1870861 1870201 1870482 1871178 1871072 1870774 1870964 1871780 1872835 1874285 1875545 1877320 1878987 1880852 1882874 1883891 1879608 1873468 1869236 1866852 1865456 1864530 1864831 1865335 1865414 1865129 1865096 1866019 1867141 1868519 1870028 1871678 1873623 1876048 1878023 1878356 1873057 1866564 1862073 1859226 1856953 1855293 1854931 1855338 1855446 1855309 1855297 1855999 1857281 1858962 1860654 1862404 1864611 1866626 1869022 1871279 1873553 1875985 1878291 1880629 1880058 1873977 1867758 1863967 1861636 1860154 1859115 1859271 1859847 1860139 1860023 1860353 1861026 1862448 1863988 1865924 1867915 1869929 1872145 1874398 1876598 1879019 1881202 1883539 1885011 1881110 1875262 1871428 1869509 1868586 1868217 1868789 1869589 1869868 1869701 1869858 1870679 1871840 1873234 1874829 1876660 1878571 1880492 1882606 1884703 1886917 1886705 1881803 1876639 1873560 1872237 1871539 1871540 1872448 1873483 1873695 1873514 1873635 1874796 1876046 1877713 1879479 1881437 1883388 1885428 1886009 1881415 1875531 1871185 1868768 1867499 1867022 1867832 1868788 1868890 1868313 1868118 1868859 1870172 1871538 1873241 1874877 1874909 1869118 1861981 1857313 1854115 1852088 1850817 1851098 1851875 1851688 1851247 1851422 1852199 1853609 1855141 1856847 1858734 1860690 1862863 1864727 1860948 1853160 1846857 1843433 1841061 1839176 1838737 1839248 1839828 1839942 1840092 1840836 1842338 1844190 1846164 1848171 1850565 1852972 1855458 1857954 1860531 1863240 1865377 1860965 1853610 1848391 1845571 1843673 1842392 1842081 1842760 1843457 1843850 1844239 1845206 1846656 1848488 1850548 1852845 1855178 1857711 1860361 1862971 1865703 1868481 1871194 1873915 1876511 1879054 1877268 1872242 1868101 1866279 1865481 1865230 1865474 1866401 1867521 1868104 1868757 1869767 1871154 1872805 1874781 1876802 1878992 1881132 1883416 1885801 1888121 1890473 1892634 1895046 1894851 1891822 1888990 1887580 1887427 1887838 1888575 1889658 1890734 1891325 1891685 1892724 1893979 1895366 1896845 1898580 1900313 1902137 1904024 1905957 1907879 1909034 1907218 1904048 1901779 1900837 1900582 1900376 1900712 1901358 1901977 1902358 1902816 1903421 1904429 1905713 1907047 1908437 1910007 1911659 1913202 1914804 1916528 1918177 1920023 1921582 1923387 1925266 1926256 1923887 1920046 1916943 1915523 1914747 1914200 1914110 1914365 1914371 1914083 1913874 1913913 1914375 1915071 1915789 1916746 1917707 1918858 1920053 1921187 1922556 1923839 1925245 1925924 1922497 1917000 1912407 1909707 1908345 1907226 1906850 1906818 1906516 1905645 1904952 1904954 1905282 1905966 1906631 1907668 1908689 1909803 1911191 1912481 1914003 1915376 1916772 1918391 1917763 1911795 1904836 1900385 1897648 1895983 1894748 1894300 1894235 1893952 1893258 1892783 1892738 1893248 1893999 1895036 1896364 1897662 1899091 1900623 1902330 1903931 1905581 1907379 1909136 1910537 1907150 1899795 1893805 1890545 1888890 1887818 1887410 1887844 1888020 1887614 1887457 1887385 1887920 1888884 1890007 1891427 1892903 1894414 1895957 1897739 1899441 1901421 1903102 1905053 1906064 1901311 1894045 1888966 1886501 1885197 1884806 1884962 1885642 1885785 1885334 1885201 1885468 1886547 1887532 1888795 1890335 1891824 1893610 1895284 1897071 1898942 1900850 1902403 1898423 1890773 1884770 1881235 1879608 1878578 1878039 1878514 1878780 1878682 1878376 1878414 1878837 1879869 1881133 1882553 1884278 1886041 1887869 1889659 1891633 1893629 1895435 1896691 1891186 1883536 1878035 1875240 1873763 1872882 1872808 1873380 1873660 1873237 1872743 1873040 1873693 1874665 1876023 1877738 1879213 1880908 1882701 1884613 1886617 1888708 1886770 1879056 1871975 1867811 1865551 1864295 1863725 1864144 1864825 1864850 1864431 1864499 1865145 1866405 1867833 1869537 1871281 1873365 1875444 1877679 1879738 1881948 1884058 1886415 1886806 1880092 1872115 1867277 1864692 1863344 1862624 1862748 1863301 1863695 1863516 1863592 1864031 1865076 1866478 1868078 1869904 1871811 1873805 1876036 1878157 1880351 1882538 1882107 1875107 1868091 1863949 1862022 1861067 1860813 1861522 1862366 1862625 1862490 1862701 1863551 1864773 1866251 1868064 1869861 1871840 1873837 1875883 1878192 1880157 1877384 1869575 1863234 1859740 1857897 1856863 1856548 1857275 1857937 1858389 1858300 1858708 1859806 1861205 1862971 1864865 1867106 1869405 1871545 1873898 1876354 1878871 1880851 1876777 1869272 1863592 1860817 1859644 1859236 1859380 1860291 1861200 1861348 1861244 1861854 1863006 1864428 1866139 1868029 1869965 1872159 1874358 1876569 1878668 1876618 1869038 1862788 1859217 1857493 1856580 1856361 1857152 1857964 1858149 1858141 1858533 1859737 1861165 1862925 1864868 1866989 1868987 1871295 1873682 1875979 1878161 1874766 1866932 1860771 1857440 1855680 1854583 1853999 1854696 1855370 1855443 1855446 1856025 1857135 1858601 1860406 1862456 1864499 1866641 1868857 1871246 1873217 1869108 1861388 1855491 1852435 1850544 1849289 1848968 1849862 1850728 1851198 1851603 1852292 1853660 1855351 1857187 1859366 1861455 1863976 1866424 1867199 1861338 1853959 1849603 1847190 1845845 1845194 1845669 1846812 1847725 1848191 1848802 1849914 1851486 1853511 1855609 1857841 1860326 1862793 1863248 1857181 1850333 1845605 1843713 1842871 1842773 1843821 1844938 1845111 1845201 1845900 1847443 1849157 1851068 1853258 1855488 1857810 1860303 1859354 1852301 1845918 1842193 1840295 1839185 1839096 1839976 1840907 1841743 1842192 1842948 1844497 1846584 1848629 1851084 1853341 1855862 1858466 1861157 1862600 1857481 1850589 1846264 1843997 1842541 1841809 1842112 1843362 1844438 1845112 1845859 1847058 1848926 1850940 1853239 1855495 1858035 1860506 1863183 1865785 1867922 1864704 1858678 1854092 1851795 1850745 1850097 1850460 1851539 1852689 1853124 1853929 1855120 1856665 1858582 1860640 1862908 1865400 1867765 1870239 1872862 1875400 1877383 1874359 1869022 1865356 1863761 1862961 1862743 1863444 1864378 1865208 1865485 1866123 1867254 1868601 1870362 1872241 1873998 1876058 1878213 1880380 1882450 1881064 1875976 1871524 1869433 1868343 1867937 1868217 1869205 1870080 1870349 1870643 1871565 1872792 1874477 1876192 1878158 1880189 1882143 1884316 1886509 1888846 1889673 1885718 1880266 1876761 1874994 1873912 1873418 1873775 1874370 1874823 1874935 1875126 1876139 1877359