1979319 1980509 1981771 1983030 1983526 1981702 1978591 1975912 1974149 1972964 1972405 1971830 1971701 1972450 1973555 1975061 1976820 1978575 1980503 1982881 1985090 1986989 1988532 1988227 1985270 1982103 1979768 1978111 1977102 1976758 1976874 1977225 1977556 1977892 1978382 1979263 1980238 1981283 1982423 1983687 1984938 1986051 1985005 1982015 1978859 1976397 1974702 1973523 1973002 1973129 1973334 1973442 1973808 1974460 1975197 1976204 1977323 1978573 1979868 1981328 1982548 1982731 1980102 1977087 1974770 1973154 1972152 1971948 1972250 1972671 1972991 1973288 1973749 1974460 1975399 1976403 1977498 1978681 1979912 1980769 1978657 1975407 1972583 1970544 1969477 1968951 1969265 1969628 1969984 1970358 1970748 1971419 1972363 1973361 1974556 1975821 1977131 1978451 1978276 1975338 1971924 1969114 1967169 1965929 1965537 1965738 1965975 1966189 1966569 1967135 1967854 1968808 1969910 1971156 1972469 1973870 1975220 1975120 1972077 1968697 1965776 1963863 1962774 1962253 1962485 1962840 1963145 1963556 1964101 1964860 1965957 1967194 1968505 1969904 1971368 1972758 1973348 1970865 1967885 1965550 1963957 1963107 1962922 1963272 1963786 1964133 1964502 1965052 1965812 1966862 1967919 1969184 1970519 1971915 1973023 1971299 1968184 1965428 1963514 1962365 1961938 1962023 1962436 1962896 1963241 1963721 1964532 1965437 1966619 1967926 1969194 1970634 1972071 1972193 1969350 1966283 1963848 1962231 1961192 1960795 1961120 1961603 1961960 1962336 1962973 1963836 1964952 1966081 1967388 1968825 1970231 1971593 1971191 1968509 1965700 1963513 1962029 1961232 1961090 1961507 1961968 1962347 1962820 1963525 1964437 1965597 1966884 1968180 1969633 1971113 1972604 1973255 1971157 1968617 1966731 1965315 1964590 1964524 1964851 1965445 1965838 1966237 1966897 1967650 1968646 1969889 1971141 1972549 1973824 1975186 1975209 1972796 1970514 1969023 1968005 1967566 1967761 1968118 1968686 1968919 1969419 1970005 1970864 1971794 1972846 1974103 1975374 1976646 1976861 1974427 1971617 1969341 1967834 1966784 1966570 1966758 1966929 1967324 1967616 1968214 1968864 1969784 1970910 1972138 1973319 1974632 1975866 1975285 1972449 1969599 1967488 1965906 1964982 1964694 1964901 1965262 1965595 1965930 1966619 1967413 1968342 1969529 1970760 1972079 1973515 1974615 1974068 1971159 1968265 1966137 1964618 1963770 1963506 1963787 1964218 1964428 1964842 1965474 1966246 1967317 1968394 1969767 1971134 1972426 1973899 1973698 1970820 1968114 1966191 1965031 1964354 1964267 1964768 1965091 1965423 1965866 1966541 1967310 1968310 1969479 1970627 1972018 1973361 1973961 1971586 1968556 1966320 1964777 1964023 1963683 1964021 1964439 1964749 1965060 1965530 1966325 1967257 1968329 1969556 1970812 1972002 1972470 1969987 1966496 1963735 1961823 1960651 1960045 1960212 1960469 1960709 1961019 1961568 1962296 1963198 1964713 1965866 1967344 1968736 1969782 1967921 1964693 1961523 1959595 1958180 1957387 1957403 1957760 1958068 1958382 1958922 1959708 1960638 1961800 1963055 1964429 1965875 1967403 1968832 1967690 1964673 1961803 1959724 1958406 1957559 1957567 1957884 1958275 1958651 1959284 1959978 1960836 1961974 1963201 1964634 1966101 1967620 1969156 1970036 1967748 1964950 1962507 1961073 1960166 1959745 1960076 1960540 1960969 1961356 1962008 1962818 1963854 1965069 1966284 1967665 1969173 1970773 1972190 1972530 1970046 1967630 1965960 1964835 1964255 1964217 1964678 1965254 1965722 1966147 1966851 1967735 1968670 1969817 1971086 1972443 1973841 1975203 1975065 1972418 1970338 1969000 1968264 1967859 1968247 1968875 1969335 1969654 1970184 1970848 1971678 1972725 1973843 1975103 1976375 1977611 1977449 1974775 1972217 1970396 1969264 1968549 1968484 1968808 1969139 1969513 1969945 1970508 1971267 1972279 1973324 1974598 1975789 1977143 1978393 1977487 1974043 1971794 1970242 1969248 1968802 1968843 1969294 1969628 1969965 1970432 1971058 1972009 1972944 1974180 1975462 1976734 1978078 1979138 1977385 1974782 1972600 1971527 1970686 1970430 1970763 1971228 1971668 1972004 1972515 1973273 1974120 1975221 1976414 1977695 1979031 1980457 1981481 1979747 1976924 1974700 1973368 1972477 1971993 1972149 1972605 1972938 1973367 1973801 1974489 1975449 1976409 1977562 1978795 1980084 1981484 1982843 1982949 1980122 1977836 1976397 1975527 1975252 1975435 1975847 1976336 1976567 1976983 1977630 1978356 1979273 1980182 1981373 1982623 1983834 1984750 1982817 1980013 1977912 1976449 1975671 1975320 1975422 1975921 1976205 1976525 1977017 1977664 1978540 1979514 1980564 1981731 1982999 1984329 1985407 1984039 1981017 1978725 1977003 1975970 1975358 1975442 1975814 1976154 1976381 1976874 1977443 1978248 1979162 1980299 1981416 1982716 1984062 1985396 1985481 1982548 1979880 1978253 1977025 1976302 1976128 1976393 1976835 1977198 1977516 1978130 1978889 1979757 1980824 1981872 1983085 1984444 1985846 1986697 1984741 1981770 1979833 1978582 1977806 1977500 1977768 1978271 1978579 1978982 1979462 1980174 1981044 1982092 1983404 1984611 1985790 1987213 1988348 1987202 1984404 1982469 1981482 1980867 1980671 1981039 1981494 1981991 1982315 1982818 1983444 1984173 1985210 1986320 1987503 1988676 1989994 1990518 1988218 1985561 1984045 1983243 1982882 1982915 1983502 1983896 1984235 1984588 1985174 1985799 1986713 1987665 1988672 1989838 1990980 1991276 1988460 1985783 1983866 1982872 1982069 1981993 1982260 1982713 1982897 1983289 1983731 1984357 1985257 1986160 1987211 1988367 1989518 1989707 1986805 1983922 1981909 1980585 1979768 1979510 1979707 1979967 1980196 1980534 1980903 1981564 1982383 1983301 1984419 1985555 1986799 1987659 1985753 1982624 1980279 1978790 1977695 1977147 1977272 1977593 1977920 1978120 1978502 1979160 1979924 1980877 1981951 1983033 1984239 1985476 1986252 1984021 1980981 1978768 1977245 1976331 1975874 1976008 1976372 1976703 1976905 1977382 1978020 1978856 1979774 1980915 1982020 1983261 1984555 1985651 1984409 1981260 1979018 1977655 1976705 1976400 1976496 1976955 1977313 1977570 1978066 1978794 1979472 1980346 1981496 1982608 1983758 1984996 1985285 1982472 1979793 1977949 1977015 1976481 1976522 1976992 1977442 1977726 1978040 1978700 1979314 1980339 1981287 1982375 1983634 1984811 1985833 1983778 1980701 1978287 1976751 1975764 1975267 1975365 1975752 1976032 1976315 1976808 1977449 1978286 1979202 1980326 1981556 1982703 1983987 1985101 1983364 1980260 1977823 1976236 1975193 1974637 1974735 1975102 1975517 1975904 1976364 1976925 1977733 1978799 1979805 1980922 1982270 1983602 1984836 1984802 1981664 1978937 1977195 1976048 1975509 1975503 1975894 1976397 1976795 1977198 1977773 1978556 1979499 1980468 1981822 1983090 1984389 1985768 1986648 1984659 1981896 1980012 1979060 1978492 1978489 1978964 1979635 1980016 1980277 1980849 1981480 1982445 1983457 1984380 1985624 1986904 1987847 1986648 1983527 1981322 1979968 1979012 1978754 1978952 1979469 1979842 1980117 1980537 1981218 1981941 1983049 1983985 1985117 1986370 1987628 1988273 1986021 1982988 1980774 1979364 1978477 1978016 1978316 1978656 1979035 1979347 1979824 1980522 1981312 1982225 1983313 1984493 1985661 1986996 1987732 1985513 1982433 1980284 1978931 1978069 1977754 1978003 1978356 1978682 1979019 1979474 1980087 1980925 1981936 1983021 1984134 1985395 1986647 1987696 1985991 1982903 1980633 1979190 1978528 1978133 1978391 1978753 1979223 1979561 1980023 1980699 1981466 1982378 1983469 1984702 1986003 1987183 1988010 1985650 1982800 1981084 1980017 1979498 1979561 1980135 1980611 1981041 1981288 1981689 1982433 1983282 1984334 1985370 1986544 1987744 1988470 1986452 1983290 1981090 1979776 1978879 1978539 1978791 1979215 1979461 1979816 1980258 1980860 1981625 1982541 1983593 1984831 1986025 1987196 1987216 1984219 1981282 1979369 1978074 1977332 1977148 1977373 1977853 1978164 1978451 1978954 1979697 1980493 1981523 1982703 1983790 1985095 1986380 1986822 1983872 1981044 1979209 1978009 1977394 1977303 1977740 1978213 1978602 1978943 1979471 1980260 1981187 1982160 1983281 1984562 1985873 1987145 1986962 1983851 1981378 1979975 1979221 1978781 1979259 1979676 1980197 1980360 1980856 1981570 1982223 1983148 1984188 1985260 1986581 1987788 1987374 1984097 1981445 1979662 1978538 1977963 1977813 1978291 1978605 1978931 1979314 1979820 1980643 1981490 1982554 1983595 1984923 1986091 1987244 1985752 1982522 1980124 1978368 1977402 1976812 1976803 1977238 1977492 1977844 1978243 1978784 1979679 1980640 1981665 1982855 1984094 1985348 1986509 1986116 1982782 1980161 1978330 1977402 1976821 1976772 1977146 1977591 1977896 1978306 1978879 1979669 1980592 1981619 1982853 1984016 1985243 1986636 1986942 1983867 1980978 1979299 1978088 1977469 1977498 1977824 1978387 1978832 1979246 1979840 1980621 1981430 1982502 1983611 1984861 1986051 1987405 1987823 1985172 1982375 1980855 1979907 1979621 1979735 1980296 1980809 1981247 1981542 1982194 1982933 1983977 1984899 1985972 1987121 1988424 1988958 1986489 1983441 1981538 1980282 1979623 1979418 1979801 1980309 1980596 1980903 1981467 1982096 1983011 1983941 1984990 1986153 1987363 1988307 1986444 1983090 1980810 1979185 1978169 1977596 1977739 1978124 1978438 1978744 1979283 1979759 1980531 1981476 1982608 1983689 1984930 1986132 1985782 1982424 1979729 1977822 1976575 1975893 1975864 1976141 1976601 1976894 1977275 1977813 1978593 1979493 1980572 1981657 1982872 1984208 1985054 1982833 1979760 1977543 1976024 1975116 1974758 1974916 1975343 1975828 1976122 1976554 1977188 1978085 1979040 1980131 1981325 1982541 1983124 1980572 1977611 1975634 1974364 1973647 1973578 1973959 1974494 1974982 1975294 1975999 1976720 1977660 1978668 1979820 1981175 1982522 1982050 1979000 1976626 1975055 1974211 1973877 1974234 1974762 1975299 1975598 1976065 1976739 1977503 1978465 1979547 1980788 1981967 1982007 1979035 1976143 1974258 1972990 1972309 1972325 1972702 1973138 1973454 1973655 1974355 1975128 1976033 1977094 1978357 1979499 1980694 1979301 1976077 1973516 1971689 1970458 1969910 1969805 1970130 1970546 1970870 1971204 1972001 1972765 1973676 1974824 1976021 1977283 1978500 1977146 1974014 1971465 1969723 1968597 1968007 1968108 1968444 1968853 1969265 1969710 1970372 1971272 1972369 1973521 1974638 1975997 1977047 1975425 1972399 1969960 1968327 1967350 1966863 1967014 1967599 1967981 1968284 1968857 1969618 1970504 1971652 1972812 1974079 1975460 1976666 1975670 1972666 1970329 1968877 1968118 1967806 1968212 1968722 1969255 1969635 1970160 1970908 1971839 1972922 1974022 1975329 1976536 1976881 1974303 1971635 1969787 1968641 1968099 1968227 1968766 1969239 1969581 1970023 1970607 1971429 1972509 1973499 1974664 1975958 1977154 1976020 1972764 1970116 1968181 1967011 1966313 1966261 1966707 1967098 1967286 1967731 1968348 1969240 1970263 1971304 1972554 1973841 1974934 1973982 1970838 1968104 1966173 1964912 1964148 1964146 1964462 1964930 1965231 1965772 1966446 1967238 1968270 1969409 1970684 1971951 1973200 1971993 1968982 1966442 1964742 1963555 1963026 1963115 1963626 1964065 1964422 1964922 1965728 1966570 1967710 1968855 1970059 1971544 1972940 1972377 1969330 1966686 1964919 1963861 1963263 1963420 1963919 1964417 1964849 1965361 1966162 1966973 1968080 1969234 1970631 1971979 1973455 1973683 1970827 1968369 1966678 1965752 1965511 1965700 1966302 1966868 1967305 1967786 1968504 1969368 1970408 1971597 1972688 1974154 1975356 1975153 1972077 1969411 1967755 1966727 1966213 1966373 1966921 1967400 1967721 1968133 1968799 1969638 1970522 1971730 1972834 1974034 1975430 1975011 1971836 1969065 1967057 1965726 1964948 1964900 1965233 1965690 1965956 1966353 1966941 1967715 1968688 1969792 1970995 1972229 1973620 1974505 1972362 1969224 1966712 1965097 1963908 1963436 1963667 1964041 1964474 1964746 1965234 1965936 1966890 1967634 1968810 1970082 1971398 1972741 1973355 1970874 1967753 1965533 1964067 1963137 1962875 1963152 1963693 1964043 1964413 1965110 1965907 1966823 1968006 1969202 1970430 1971850 1971925 1969083 1966277 1964333 1963019 1962392 1962346 1962770 1963219 1963684 1964217 1964891 1965749 1966762 1967940 1969188 1970608 1970798 1968150 1965314 1963360 1962068 1961469 1961368 1961822 1962387 1962816 1963353 1964034 1964970 1966005 1967140 1968421 1969792 1970747 1968734 1965725 1963532 1962088 1961323 1961092 1961504 1962089 1962578 1963057 1963785 1964580 1965574 1966799 1968040 1969394 1970929 1971634 1969044 1966339 1964484 1963429 1962968 1963127 1963798 1964280 1964774 1965183 1965794 1966651 1967639 1968693 1969877 1971279 1972209 1970237 1967126 1964612 1963034 1962133 1961716 1962106 1962530 1962784 1963095 1963545 1964273 1965069 1966195 1967236 1968594 1969669 1969453 1966273 1963018 1960594 1958783 1957791 1957421 1957647 1958027 1958237 1958615 1959092 1959847 1960741 1961990 1963064 1964461 1965802 1965663 1962571 1959221 1956501 1954848 1953712 1953336 1953578 1954085 1954306 1954645 1955243 1956082 1957084 1958198 1959529 1960875 1962275 1963297 1961233 1957841 1954892 1952975 1951790 1951261 1951507 1952062 1952456 1952668 1953241 1953895 1954850 1955909 1957211 1958451 1959899 1961109 1959745 1956455 1953263 1951158 1949821 1949461 1949615 1950173 1950627 1950881 1951285 1951985 1952811 1953746 1955042 1956322 1957584 1957778 1954702 1950713 1947446 1945379 1944115 1943748 1944071 1944428 1944612 1945011 1945517 1946342 1947501 1948602 1949922 1951350 1952846 1952287 1949023 1944879 1941766 1939901 1938680 1938476 1938739 1939243 1939551 1940076 1940830 1941717 1942824 1944204 1945587 1947149 1948776 1949553 1947072 1943213 1939784 1937568 1936378 1935933 1936254 1936712 1937223 1937737 1938414 1939306 1940589 1941850 1943294 1944850 1946452 1948262 1948633 1946006 1942565 1939802 1938339 1937511 1937489 1937993 1938675 1939198 1939699 1940506 1941607 1942768 1944133 1945674 1947276 1948871 1949973 1948377 1945501 1943007 1941561 1940926 1940933 1941516 1942194 1942730 1943186 1943982 1944922 1946043 1947333 1948604 1950113 1951708 1952061 1949785 1946629 1944248 1942670 1941963 1941911 1942207 1942758 1943353 1943852 1944520 1945474 1946654 1947849 1949188 1950745 1952223 1952952 1950926 1947879 1945870 1944033 1943119 1942703 1942858 1943361 1943904 1944327 1944989 1945723 1946775 1947943 1949391 1950650 1952198 1953710 1954527 1952631 1949645 1947267 1945917 1945196 1944971 1945341 1945943 1946501 1946938 1947659 1948535 1949606 1950860 1952140 1953571 1955070 1956518 1957583 1955823 1953202 1951151 1950063 1949654 1949693 1950171 1950788 1951266 1951590 1952286 1953014 1954019 1955154 1956350 1957598 1959013 1959890 1958243 1955262 1952623 1951089 1950114 1949693 1950000 1950377 1950772 1951062 1951549 1952322 1953219 1954283 1955424 1956618 1958068 1959180 1958032 1955001 1951743 1949596 1948317 1947491 1947308 1947640 1948014 1948325 1948758 1949341 1950200 1951341 1952377 1953690 1955048 1956463 1956878 1954319 1951068 1948567 1946908 1945930 1945637 1945933 1946357 1946670 1947078 1947758 1948565 1949575 1950798 1952096 1953459 1954896 1956308 1956499 1953762 1950833 1948676 1947512 1946769 1946731 1947217 1947792 1948144 1948635 1949349 1950295 1951372 1952591 1953850 1955411 1956810 1958123 1956877 1954097 1951655 1950142 1949468 1949323 1949580 1950214 1950661 1950951 1951580 1952329 1953306 1954468 1955637 1956881 1958311 1959517 1958596 1955710 1952809 1950906 1949774 1949169 1949188 1949558 1949954 1950293 1950811 1951445 1952321 1953341 1954615 1955839 1957175 1958647 1959512 1957340 1954449 1951774 1950166 1949286 1948966 1949092 1949601 1949961 1950293 1950906 1951716 1952739 1953748 1955119 1956430 1957855 1959364 1960666 1959362 1956429 1953852 1952181 1951236 1950757 1951031 1951444 1951931 1952250 1952802 1953466 1954461 1955528 1956704 1957967 1959411 1960806 1962245 1962894 1960364 1957576 1955668 1954531 1953923 1953889 1954290 1954810 1955262 1955737 1956394 1957202 1958261 1959347 1960642 1961989 1963405 1964864 1966108 1965097 1962335 1960188 1959176 1958638 1958472 1959037 1959524 1960053 1960349 1960842 1961606 1962309 1963400 1964610 1965619 1966941 1968213 1967738 1964872 1962229 1960549 1959547 1959130 1959280 1959686 1960203 1960484 1960936 1961647 1962324 1963377 1964400 1965609 1966887 1968156 1968629 1966050 1963191 1960947 1959565 1958764 1958370 1958672 1959119 1959468 1959780 1960384 1960964 1961963 1962956 1964140 1965418 1966628 1967925 1966602 1963515 1961005 1959359 1958499 1957986 1958113 1958583 1959090 1959381 1959859 1960587 1961439 1962438 1963626 1964785 1966076 1967448 1967975 1965301 1962401 1960388 1959254 1958541 1958547 1958944 1959548 1959908 1960334 1960996 1961788 1962669 1963832 1965142 1966286 1967720 1969015 1967931 1965002 1962843 1961540 1960921 1960759 1961179 1961781 1962398 1962702 1963195 1963923 1964740 1965778 1966841 1967958 1969322 1969694 1967154 1964272 1962258 1961055 1960413 1960452 1960778 1961347 1961628 1962002 1962468 1963284 1964229 1965288 1966374 1967513 1968645 1967491 1964270 1961448 1959611 1958376 1957705 1957646 1957974 1958396 1958555 1958938 1959546 1960297 1961378 1962359 1963510 1964772 1965754 1963799 1960539 1957563 1955662 1954468 1953763 1953796 1954128 1954432 1954679 1954945 1955578 1956478 1957395 1958420 1959635 1960929 1962080 1961323 1958122 1954802 1952526 1951141 1950269 1950172 1950477 1950834 1951025 1951433 1951937 1952719 1953637 1954801 1956008 1957338 1958662 1958796 1955951 1952729 1950391 1948998 1948356 1948267 1948634 1949105 1949250 1949521 1950092 1950770 1951756 1952867 1953956 1955124 1956426 1955398 1952133 1948465 1946098 1944621 1943732 1943616 1943972 1944176 1944402 1944816 1945536 1946344 1947417 1948612 1949821 1951270 1952408 1951302 1947936 1944170 1941749 1940104 1939234 1939111 1939400 1939686 1939964 1940471 1941120 1942037 1943097 1944428 1945669 1947112 1948646 1949399 1947222 1943628 1940550 1938747 1937584 1937104 1937373 1937829 1938257 1938773 1939200 1940141 1941112 1942408 1943753 1945174 1946707 1948226 1948658 1946449 1943135 1940909 1939552 1938924 1938919 1939435 1940094 1940563 1941040 1941760 1942683 1943846 1945040 1946472 1947868 1949347 1950183 1948232 1945223 1942858 1941557 1940946 1940870 1941449 1941939 1942363 1942849 1943511 1944321 1945527 1946711 1948034 1949432 1950942 1951999 1950365 1947324 1944647 1942889 1941988 1941608 1941840 1942346 1942866 1943162 1943855 1944594 1945940 1947239 1948495 1949873 1951376 1952905 1952471 1949874 1946980 1945024 1943957 1943281 1943376 1943822 1944313 1944810 1945343 1946045 1946886 1947987 1949190 1950577 1951868 1953473 1954845 1954254 1951743 1949049 1947493 1946581 1946279 1946485 1947027 1947632 1948092 1948621 1949412 1950375 1951381 1952650 1954024 1955321 1956845 1958020 1956718 1954244 1952090 1951006 1950431 1950427 1950876 1951629 1952032 1952392 1952932 1953771 1954692 1955712 1956852 1958043 1959369 1960545 1959360 1956419 1953880 1952245 1951295 1950874 1951105 1951544 1951998 1952185 1952709 1953386 1954218 1955268 1956350 1957546 1958879 1960225 1960646 1958251 1955265 1952908 1951556 1950613 1950169 1950480 1950860 1951162 1951544 1952030 1952767 1953720 1954852 1956037 1957283 1958485 1959879 1959602 1956814 1953875 1951915 1950704 1950019 1949997 1950382 1950739 1951158 1951494 1952146 1952922 1953958 1955044 1956302 1957610 1959036 1960427 1960215 1957411 1954971 1953348 1952521 1952143 1952386 1952871 1953416 1953767 1954118 1954858 1955679 1956638 1957689 1958911 1960191 1961501 1961169 1958329 1955570 1953876 1952787 1952274 1952473 1952880 1953348 1953562 1953978 1954579 1955512 1956537 1957664 1958814 1960063 1961497 1962042 1959582 1956574 1954040 1952698 1951827 1951383 1951615 1952114 1952403 1952733 1953178 1953816 1954840 1955860 1957031 1958300 1959569 1960879 1960164 1957291 1954535 1952637 1951535 1951003 1950935 1951241 1951740 1952129 1952616 1953236 1954131 1955072 1956265 1957582 1958971 1960406 1961422 1959851 1957008 1954850 1953477 1952881 1952603 1953010 1953612 1954057 1954420 1954937 1955732 1956638 1957654 1958763 1960075 1961429 1962580 1961703 1958768 1956357 1954853 1954139 1953904 1954179 1954710 1955218 1955529 1955990 1956633 1957577 1958623 1959717 1961017 1962236 1963430 1962279 1959172 1956633 1954958 1953953 1953330 1953449 1953892 1954286 1954617 1954982 1955674 1956571 1957484 1958659 1959875 1961199 1962541 1962240 1959369 1956493 1954598 1953459 1952765 1952682 1953121 1953618 1953877 1954370 1955025 1955815 1956871 1958012 1959195 1960562 1962021 1962763 1960494 1957848 1955920 1954833 1954347 1954367 1954860 1955441 1955789 1956204 1956836 1957573 1958390 1959540 1960654 1961918 1963132 1962890 1960108 1957391 1955657 1954538 1954031 1954057 1954621 1954952 1955280 1955629 1956313 1957090 1958074 1959145 1960274 1961908 1962153 1959429 1956341 1953977 1952505 1951563 1951226 1951495 1951873 1952160 1952412 1953034 1953665 1954554 1955684 1956846 1958124 1959360 1958363 1955346 1952147 1950118 1948766 1947933 1947905 1948218 1948678 1948921 1949334 1949973 1950786 1951868 1953104 1954282 1955658 1957008 1956635 1953697 1950838 1948919 1947893 1947294 1947402 1947878 1948308 1948636 1949090 1949834 1950623 1951614 1952668 1953913 1955231 1956176 1954411 1951313 1948642 1946907 1945860 1945493 1945783 1946120 1946515 1946741 1947161 1947845 1948796 1949862 1951032 1952281 1953522 1953117 1950252 1946729 1944212 1942688 1941750 1941497 1941682 1942117 1942346 1942732 1943222 1944040 1944974 1946219 1947479 1948855 1950082 1949181 1946037 1942633 1940416 1938870 1938290 1938120 1938529 1938952 1939255 1939846 1940528 1941453 1942593 1943798 1945480 1947043 1948101 1946419 1943263 1940571 1938932 1937949 1937534 1937969 1938521 1938982 1939367 1939982 1940808 1941927 1943048 1944372 1945871 1947353 1947780 1945447 1942461 1940124 1938807 1938178 1938252 1938713 1939302 1939788 1940142 1940808 1941800 1942984 1944118 1945437 1946930 1947983 1946358 1943287 1940363 1938680 1937540 1937105 1937323 1937915 1938361 1938789 1939325 1940144 1941173 1942312 1943727 1945152 1946566 1946471 1943958 1940597 1938297 1936868 1935947 1935831 1936181 1936785 1937255 1937736 1938506 1939387 1940563 1941884 1943184 1944671 1946257 1946596 1944296 1941042 1938708 1937303 1936682 1936568 1936923 1937528 1938010 1938443 1939279 1940180 1941283 1942555 1944013 1945332 1946859 1947692 1945569 1942791 1940764 1939711 1939241 1939311 1939955 1940597 1941053 1941621 1942360 1943268 1944360 1945510 1946888 1948316 1949644 1949076 1946396 1943570 1941717 1940798 1940330 1940453 1941126 1941622 1941932 1942526 1943205 1944262 1945361 1946612 1947883 1949365 1950557 1949407 1946533 1943656 1941878 1940811 1940323 1940415 1940995 1941446 1941783 1942405 1943083 1944102 1945266 1946488 1947835 1949222 1950521 1949804 1947089 1944055 1942197 1940998 1940424 1940615 1941042 1941564 1941877 1942371 1943135 1944045 1945274 1946551 1947829 1949211 1950732 1951614 1949685 1946783 1944236 1942832 1942014 1941787 1942246 1942743 1943195 1943705 1944225 1945035 1946073 1947211 1948442 1949921 1951349 1952846 1954060 1953094 1950211 1947588 1946063 1945278 1944928 1945485 1945967 1946503 1946932 1947512 1948355 1949340 1950389 1951667 1952985 1954447 1955843 1957096 1956098 1953488 1951033 1949651 1948938 1948763 1949112 1949777 1950277 1950681 1951193 1951987 1952894 1953938 1955135 1956405 1957787 1959206 1960544 1960691 1958118 1955810 1954389 1953750 1953608 1954052 1954700 1955267 1955620 1956076 1956691 1957534 1958591 1959625 1960792 1962031 1963185 1963639 1961142 1958540 1956588 1955460 1955142 1955149 1955621 1956107 1956465 1956833 1957410 1958171 1959047 1960055 1961066 1962339 1963695 1964262 1962094 1959112 1956712 1955228 1954439 1954135 1954459 1954868 1955219 1955463 1955984 1956590 1957491 1958448 1959524 1960716 1962030 1963227 1962511 1959469 1956591 1954718 1953649 1953066 1953037 1953382 1953845 1954094 1954456 1955040 1955803 1956745 1957865 1959028 1960316 1961540 1962723 1961152 1958078 1955331 1953862 1952936 1952559 1952664 1953225 1953650 1953887 1954458 1955071 1955931 1956901 1957995 1959244 1960605 1961938 1962662 1960344 1957638 1955716 1954719 1954298 1954310 1954827 1955461 1955767 1956138 1956641 1957453 1958338 1959376 1960452 1961740 1962941 1963926 1962190 1959194 1956877 1955479 1954723 1954441 1954787 1955214 1955609 1955866 1956328 1957054 1957861 1958850 1960036 1961194 1962440 1963788 1964441 1962125 1958544 1956519 1955350 1954697 1954675 1954964 1955437 1955757 1956143 1956703 1957301 1958330 1959397 1960585 1961636 1963043 1964409 1965222 1963206 1960235 1958018 1956669 1955909 1955649 1955988 1956433 1956910 1957180 1957607 1958357 1959257 1960304 1961422 1962621 1963817 1965228 1966503 1966497 1963693 1961167 1959416 1958468 1957978 1958074 1958570 1959161 1959499 1959955 1960532 1961231 1962076 1963077 1964383 1965520 1966746 1968159 1968860 1966663 1963789 1961911 1960899 1960284 1960271 1960598 1961204 1961700 1961993 1962503 1963177 1964101 1965008 1966070 1967263 1968493 1969689 1968902 1966003 1963640 1962207 1961496 1961123 1961348 1961929 1962497 1962856 1963319 1963940 1964758 1965696 1966790 1967879 1969220 1970373 1969850 1966836 1964378 1962869 1962053 1961769 1962030 1962566 1963045 1963378 1963938 1964593 1965369 1966357 1967404 1968542 1969738 1970757 1969048 1966115 1964042 1962856 1962226 1962103 1962507 1963145 1963532 1964002 1964540 1965287 1966069 1967132 1968185 1969357 1970688 1971432 1969227 1966436 1964674 1963689 1963351 1963288 1963789 1964507 1964945 1965332 1965959 1966659 1967613 1968759 1969823 1971084 1972321 1972602 1970021 1967394 1965991 1965283 1965032 1965318 1966014 1966539 1966911 1967387 1968002 1968909 1969922 1970931 1972061 1973270 1973468 1970670 1967798 1965914 1964820 1964285 1964224 1964694 1965179 1965451 1965829 1966262 1967077 1967846 1968968 1970052 1971156 1972341 1971891 1968636 1966069 1964283 1963210 1962687 1962726 1963201 1963619 1964008 1964339 1964903 1965680 1966577 1967679 1968788 1970021 1971254 1971565 1968905 1966000 1964193 1962851 1962322 1962289 1962641 1963194 1963539 1963912 1964494 1965226 1966037 1967006 1968156 1969403 1970689 1971960 1971580 1968568 1966130 1964611 1963770 1963472 1963611 1964177 1964824 1965208 1965673 1966204 1967028 1967985 1969097 1970244 1971460 1972833 1973714 1972074 1969370 1967502 1966607 1966307 1966494 1967087 1967769 1968137 1968498 1968945 1969775 1970567 1971532 1972589 1973658 1974806 1974855 1971849 1969234 1967675 1966910 1966500 1966613 1967035 1967520 1967953 1968126 1968697 1969427 1970324 1971372 1972400 1973547 1974239 1972145 1969154 1966966 1965524 1964735 1964360 1964560 1965025 1965413 1965707 1966123 1966826 1967567 1968487 1969821 1970927 1972055 1971390 1968316 1965684 1964105 1963044 1962592 1962573 1963011 1963492 1963888 1964249 1964791 1965596 1966491 1967514 1968606 1969922 1970966 1969903 1966781 1964434 1963007 1962168 1961720 1962087 1962588 1963005 1963373 1963854 1964519 1965340 1966289 1967347 1968576 1969766 1970941 1970013 1966990 1964905 1963681 1963029 1962906 1963430 1964073 1964509 1964933 1965351 1966001 1966758 1967761 1968806 1969970 1971120 1970936 1967887 1965267 1963555 1962500 1962102 1962187 1962675 1963165 1963417 1963751 1964396 1965201 1966125 1967162 1968275 1969269 1968773 1965629 1962885 1960910 1959669 1958929 1958981 1959346 1959694 1959964 1960207 1960824 1961562 1962540 1963460 1964610 1965831 1966361 1964126 1961089 1958661 1956972 1955855 1955432 1955701 1956097 1956427 1956636 1957162 1957879 1958686 1959664 1960781 1961876 1963147 1964134 1962137 1959186 1956488 1954925 1953834 1953401 1953687 1954136 1954539 1954859 1955408 1956019 1956950 1957940 1958996 1960220 1961554 1962745 1961754 1958878 1956371 1954831 1953955 1953556 1953934 1954440 1955015 1955242 1955692 1956401 1957148 1958173 1959161 1960337 1961554 1962416 1960410 1957360 1955026 1953546 1952642 1952508 1952845 1953363 1953686 1954026 1954416 1955185 1956056 1957004 1958077 1959297 1960453 1959561 1956589 1953658 1951493 1950240 1949540 1949453 1949860 1950214 1950472 1950904 1951483 1952242 1953208 1954305 1955551 1956839 1957864 1956180 1953248 1950371 1948486 1947307 1946545 1946713 1947217 1947547 1947916 1948466 1949151 1949948 1951014 1952230 1953478 1954878 1956188 1955628 1952569 1949865 1947858 1946668 1945939 1946072 1946569 1947146 1947448 1947922 1948634 1949570 1950633 1951883 1953109 1954487 1955846 1956358 1953759 1951109 1949202 1948157 1947633 1947854 1948470 1948993 1949393 1949791 1950502 1951252 1952287 1953423 1954675 1956037 1957252 1956564 1953532 1950823 1948912 1947746 1947234 1947374 1947816 1948406 1948632 1949056 1949636 1950567 1951527 1952674 1953909 1955255 1956164 1954313 1951261 1948509 1946758 1945699 1945129 1945450 1945943 1946318 1946679 1947190 1947871 1948851 1949908 1951067 1952365 1953772 1954809 1953035 1950042 1947502 1945697 1944681 1944154 1944311 1944830 1945336 1945664 1946118 1946906 1947790 1948993 1950262 1951512 1952927 1954327 1953820 1950972 1948312 1946374 1945343 1944831 1944984 1945552 1946046 1946359 1946955 1947653 1948520 1949632 1950668 1952020 1953328 1954608 1953992 1951114 1947996 1946450 1945687 1945539 1945824 1946496 1946973 1947223 1947846 1948641 1949599 1950657 1951824 1953019 1954327 1953804 1950913 1947882 1945689 1944358 1943695 1943717 1944250 1944693 1945022 1945518 1946226 1947044 1948065 1949119 1950522 1951838 1952954 1951472 1948528 1945474 1943556 1942462 1941777 1941946 1942539 1942874 1943265 1943781 1944524 1945514 1946531 1947810 1949074 1950546 1951829 1950995 1947995 1945085 1943099 1942020 1941452 1941607 1942085 1942588 1943027 1943506 1944268 1945257 1946347 1947935 1949314 1950699 1952219 1952235 1949552 1946840 1944953 1943899 1943509 1943675 1944315 1944811 1945342 1945787 1946560 1947360 1948496 1949599 1950866 1952164 1953371 1951954 1949079 1946616 1945128 1944363 1944166 1944471 1945065 1945570 1945844 1946359 1947137 1948059 1949218 1950342 1951559 1952785 1951905 1948907 1946028 1944058 1942871 1942332 1942424 1942907 1943411 1943656 1944175 1944893 1945730 1946836 1947932 1949240 1950596 1951230 1948922 1945917 1943414 1941689 1940714 1940442 1940693 1941155 1941520 1941939 1942699 1943548 1944446 1945614 1946823 1948174 1949518 1948564 1945547 1942288 1940174 1938912 1938293 1938412 1938796 1939198 1939674 1940092 1940827 1941685 1942830 1943937 1945261 1946712 1947870 1946496 1943361 1940263 1938487 1937492 1937099 1937378 1937987 1938438 1938711 1939265 1940033 1940979 1942117 1943294 1944615 1945939 1945726 1942926 1939468 1937015 1935748 1935078 1935258 1935747 1936195 1936495 1936931 1937575 1938527 1939556 1940759 1942151 1943471 1943615 1940982 1937379 1934599 1932800 1931996 1931917 1932277 1932788 1933282 1933648 1934396 1935304 1936420 1937669 1939034 1940510 1941592 1940019 1936591 1933471 1931470 1930439 1929937 1930498 1930955 1931535 1932019 1932737 1933666 1934746 1935957 1937376 1938956 1940335 1939981 1937324 1933766 1931787 1930511 1930095 1930246 1930911 1931536 1931963 1932650 1933537 1934513 1935756 1937131 1938614 1940036 1941375 1940177 1937322 1934619 1933103 1932432 1932293 1932859 1933641 1934161 1934631 1935311 1936214 1937372 1938599 1939958 1941345 1942736 1942185 1939433 1936182 1934343 1933343 1932945 1933258 1933814 1934317 1934775 1935405 1936268 1937309 1938444 1939712 1941127 1942540 1942364 1939628 1936417 1934264 1932994 1932387 1932516 1933031 1933706 1934180 1934670 1935505 1936491 1937750 1939036 1940339 1941771 1942752 1941206 1938195 1935538 1934063 1933241 1933020 1933418 1934075 1934592 1935012 1935777 1936627 1937983 1939343 1940624 1942047 1943511 1944133 1942111 1939141 1936927 1935698 1935133 1935178 1935692 1936375 1936840 1937428 1938201 1939086 1940246 1941462 1942810 1944229 1945652 1946492 1944458 1941819 1939829 1938875 1938468 1938647 1939256 1939924 1940329 1940837 1941550 1942448 1943529 1944649 1945994 1947271 1948187 1946640 1943655 1941012 1939522 1938692 1938515 1938793 1939406 1939666 1939942 1940665 1941377 1942377 1943423 1944757 1946057 1947283 1946578 1943769 1940728 1938703 1937474 1936832 1936953 1937518 1938003 1938382 1938879 1939540 1940528 1941545 1942731 1944114 1945450 1946447 1944637 1941576 1938963 1937429 1936537 1936224 1936591 1937150 1937529 1937975 1938645 1939366 1940471 1941542 1942859 1944148 1945739 1946998 1945981 1943156 1940433 1938777 1937894 1937649 1937891 1938527 1939142 1939524 1940129 1940884 1941859 1943084 1944384 1945757 1947194 1948538 1948721 1946372 1943919 1942381 1941774 1941404 1941819 1942487 1943039 1943548 1944009 1944722 1945785 1946721 1948227 1949522 1950866 1951436 1949381 1946774 1944814 1943637 1943158 1943194 1943807 1944310 1944664 1945148 1945709 1946565 1947605 1948666 1949787 1951131 1952028 1950269 1947414 1945042 1943677 1942806 1942473 1942838 1943319 1943736 1944088 1944688 1945349 1946258 1947393 1948577 1949899 1951056 1950738 1948198 1945386 1943462 1942434 1941884 1941969 1942413 1942919 1943203 1943742 1944473 1945312 1946355 1947483 1948685 1950040 1951316 1950321 1947603 1945093 1943503 1942676 1942265 1942504 1943071 1943450 1943844 1944378 1945215 1946084 1947139 1948327 1949654 1950947 1952345 1952004 1949481 1947115 1945664 1945041 1944788 1945135 1945701 1946295 1946655 1947162 1947900 1948817 1950131 1951258 1952465 1953707 1953490 1950980 1948299 1946687 1945763 1945256 1945438 1945980 1946430 1946727 1947178 1947825 1948729 1949626 1950721 1951967 1953020 1952739 1950064 1947208 1945223 1943966 1943300 1943268 1943681 1944124 1944385 1944648 1945440 1946147 1947093 1948245 1949501 1950731 1950993 1948549 1945569 1943273 1942041 1941304 1941094 1941566 1942000 1942321 1942606 1943198 1944122 1945128 1946210 1947390 1948764 1949850 1948661 1945554 1942803 1941105 1939984 1939621 1939830 1940194 1940622 1940816 1941365 1942042 1942922 1944052 1945216 1946391 1947844 1949065 1947815 1944999 1942336 1940789 1939897 1939564 1939765 1940361 1940764 1941029 1941596 1942228 1943187 1944191 1945380 1946498 1947683 1947391 1944774 1941651 1939567 1938359 1937740 1937834 1938253 1938631 1938842 1939204 1939840 1940604 1941511 1942684 1943905 1945173 1944803 1942009 1938452 1936061 1934591 1933757 1933709 1934153 1934547 1934742 1935166 1935888 1936696 1937830 1939020 1940237 1941624 1942344 1940233 1936806 1934116 1932333 1931343 1931065 1931265 1931776 1932191 1932594 1933111 1934020 1935006 1936081 1937403 1938723 1940242 1940530 1938405 1935004 1932688 1931307 1930640 1930598 1931160 1931555 1932087 1932532 1933326 1934267 1935432 1936676 1937965 1939508 1940834 1940577 1938284 1935451 1933851 1932941 1932611 1932909 1933499 1934080 1934526 1935085 1935887 1936794 1937952 1939062 1940492 1941863 1942210 1940260 1937083 1934912 1933683 1933094 1933148 1933635 1934073 1934534 1935048 1935759 1936614 1937729 1938841 1940161 1941431 1942123 1940386 1937154 1934632 1933016 1932367 1932379 1932863 1933330 1933705 1934172 1934866 1935760 1936956 1938085 1939395 1940920 1941913 1940517 1937504 1934756 1933142 1932274 1931950 1932182 1932741 1933154 1933495 1934133 1934901 1935915 1937020 1938272 1939529 1940917 1942107 1940945 1937886 1934933 1933262 1932600 1932294 1932580 1933230 1933585 1934034 1934567 1935411 1936369 1937471 1938711 1940056 1941424 1942744 1942559 1940214 1937207 1935319 1934472 1934121 1934326 1934911 1935417 1935723 1936187 1936960 1937777 1938828 1940057 1941224 1942537 1943802 1942957 1940131 1936952 1935083 1934050 1933564 1933757 1934123 1934561 1934798 1935311 1935936 1936872 1938141 1939341 1940675 1941916 1942981 1941705 1938387 1935302 1933373 1932352 1931860 1932095 1932573 1932974 1933299 1933834 1934512 1935439 1936602 1937750 1939007 1940400 1941763 1941148 1938378 1935156 1933024 1931779 1931260 1931380 1931847 1932233 1932607 1933131 1933768 1934703 1935822 1936989 1938187 1939689 1941106 1941951 1940252 1937114 1934737 1933404 1932759 1932678 1933084 1933654 1934086 1934501 1935037 1935977 1937022 1938123 1939382 1940699 1942098 1943408 1942604 1939915