2298740 2299296 2299719 2300254 2300762 2300778 2299980 2299074 2298422 2298138 2297980 2297946 2298031 2298136 2298159 2298316 2298549 2298927 2299201 2299595 2300024 2300425 2300866 2301234 2301695 2302196 2302222 2301268 2300268 2299688 2299293 2299239 2299248 2299330 2299349 2299433 2299543 2299751 2300072 2300393 2300759 2301213 2301655 2302048 2302469 2302840 2303281 2302745 2301692 2300796 2300231 2299853 2299850 2299811 2299778 2299852 2299877 2300032 2300233 2300592 2300939 2301265 2301701 2302213 2302476 2302908 2303325 2303620 2302853 2301627 2300662 2300062 2299649 2299567 2299517 2299424 2299349 2299494 2299571 2299753 2299998 2300373 2300707 2301127 2301571 2301952 2302311 2302694 2303129 2302737 2301292 2300012 2299227 2298626 2298243 2298093 2297935 2297809 2297679 2297695 2297839 2298087 2298370 2298747 2299034 2299573 2299880 2300278 2300633 2301160 2301278 2300092 2298445 2297321 2296440 2295893 2295550 2295411 2295179 2295054 2294973 2295015 2295245 2295556 2295855 2296226 2296704 2297062 2297534 2297870 2298345 2298826 2299094 2298169 2296512 2295183 2294311 2293560 2293180 2293014 2292751 2292566 2292467 2292566 2292692 2293017 2293420 2293825 2294172 2294656 2295088 2295561 2296086 2296521 2296995 2296655 2295144 2293696 2292732 2291960 2291516 2291313 2291169 2291060 2290902 2290962 2291183 2291501 2291792 2292276 2292736 2293259 2293789 2294203 2294695 2295187 2295729 2295728 2294519 2293102 2292198 2291478 2291087 2290923 2290853 2290782 2290738 2290819 2290924 2291342 2291744 2292122 2292624 2293102 2293592 2294098 2294635 2295148 2295769 2295845 2294793 2293487 2292635 2292018 2291594 2291544 2291488 2291467 2291462 2291579 2291839 2292083 2292477 2292987 2293481 2293972 2294505 2295046 2295500 2295985 2296500 2296264 2294951 2293879 2293033 2292501 2292320 2292180 2292198 2292074 2292126 2292187 2292487 2292827 2293187 2293675 2294141 2294521 2295088 2295608 2296057 2296529 2296572 2295405 2294015 2293010 2292266 2291785 2291602 2291390 2291288 2291194 2291207 2291335 2291625 2292061 2292381 2292903 2293360 2293780 2294318 2294794 2295277 2295219 2293823 2292284 2291042 2290049 2289302 2288988 2288681 2288407 2288264 2288197 2288346 2288525 2288863 2289255 2289688 2290234 2290620 2291117 2291533 2292112 2292203 2290822 2288893 2287239 2286101 2285028 2284564 2284304 2283864 2283560 2283360 2283447 2283625 2284065 2284499 2284929 2285422 2285883 2286395 2286896 2287447 2287772 2286776 2284729 2282819 2281405 2280311 2279749 2279254 2278954 2278615 2278415 2278439 2278594 2278912 2279288 2279825 2280218 2280837 2281286 2281762 2282422 2282939 2283284 2282129 2280049 2278211 2276948 2276019 2275366 2275100 2274790 2274519 2274367 2274352 2274612 2275023 2275463 2275912 2276410 2277014 2277541 2278156 2278688 2279337 2279415 2277905 2275981 2274413 2273319 2272570 2272132 2271947 2271706 2271500 2271491 2271696 2272042 2272494 2272961 2273491 2274138 2274725 2275310 2275933 2276532 2277294 2277430 2276146 2274402 2272967 2271924 2271228 2270941 2270797 2270655 2270566 2270571 2270766 2271156 2271630 2272147 2272768 2273382 2274014 2274652 2275274 2275898 2276670 2276785 2275518 2274064 2272819 2271920 2271421 2271189 2271069 2270980 2270963 2271043 2271266 2271722 2272159 2272699 2273324 2273961 2274542 2275206 2275774 2276485 2276959 2276007 2274400 2273151 2272157 2271482 2271264 2271053 2270859 2270843 2270866 2271027 2271293 2271862 2272345 2272887 2273666 2274366 2275112 2275718 2276461 2276767 2275748 2274035 2272570 2271593 2270806 2270450 2270251 2269969 2269754 2269733 2269880 2270140 2270578 2271021 2271527 2272025 2272585 2273178 2273757 2274271 2273880 2272070 2270191 2268756 2267666 2266896 2266527 2266232 2265972 2265769 2265788 2265962 2266307 2266711 2267259 2267768 2268225 2268829 2269392 2270116 2270314 2268923 2266576 2264548 2263190 2262054 2261445 2260955 2260497 2260059 2259924 2259975 2260170 2260527 2260917 2261413 2261988 2262599 2263101 2263758 2264383 2264631 2263035 2260401 2258285 2256652 2255311 2254663 2254179 2253647 2253162 2252984 2252944 2253161 2253552 2254021 2254484 2255054 2255650 2256343 2257032 2257632 2257554 2255556 2252790 2250815 2249188 2248018 2247384 2246812 2246363 2246030 2245916 2246002 2246299 2246784 2247313 2247935 2248525 2249217 2250002 2250716 2250992 2249392 2246590 2244415 2242792 2241510 2240779 2240365 2240002 2239547 2239500 2239648 2239978 2240514 2241111 2241724 2242468 2243207 2243927 2244782 2245522 2244967 2242656 2240113 2238324 2236914 2236022 2235538 2235256 2234991 2234713 2234788 2235120 2235656 2236340 2236954 2237658 2238486 2239304 2240112 2240919 2241209 2239591 2237002 2234924 2233436 2232355 2231835 2231519 2231232 2231056 2231114 2231267 2231744 2232543 2233279 2233956 2234805 2235562 2236306 2237219 2237138 2235050 2232627 2230790 2229479 2228490 2228074 2227875 2227531 2227433 2227467 2227879 2228290 2228926 2229600 2230372 2231228 2231995 2232815 2233615 2233166 2230899 2228568 2226881 2225565 2224767 2224304 2224070 2223865 2223744 2223882 2224205 2224663 2225307 2226078 2226791 2227509 2228365 2229243 2229778 2228398 2225804 2223835 2222335 2221148 2220693 2220416 2220164 2220016 2219967 2220297 2220649 2221178 2221943 2222616 2223386 2224167 2225026 2225806 2225845 2223795 2221311 2219544 2218232 2217295 2216916 2216625 2216311 2216127 2216239 2216543 2217001 2217681 2218297 2218989 2219842 2220597 2221497 2221800 2220078 2217344 2215193 2213557 2212374 2211760 2211322 2211017 2210695 2210657 2210852 2211193 2211756 2212483 2213155 2213922 2214668 2215594 2216263 2215322 2212434 2209791 2207787 2206123 2205248 2204645 2204184 2203780 2203539 2203642 2204038 2204481 2205079 2205799 2206562 2207397 2208157 2209031 2209299 2207282 2204168 2201910 2200039 2198696 2197992 2197555 2197012 2196788 2196710 2196885 2197284 2197967 2198596 2199336 2200161 2200964 2201867 2202000 2199811 2196730 2194391 2192538 2191234 2190619 2190201 2189788 2189495 2189355 2189705 2190242 2190923 2191649 2192376 2193325 2194216 2195035 2194996 2192487 2189469 2187249 2185504 2184342 2183804 2183448 2182982 2182854 2182863 2183253 2183821 2184476 2185305 2186125 2187055 2188083 2188863 2188213 2185286 2182674 2180735 2179206 2178351 2177923 2177540 2177303 2177147 2177385 2177878 2178416 2179225 2180055 2180950 2181848 2182830 2183686 2182228 2179352 2176983 2175249 2173806 2173088 2172825 2172446 2172273 2172313 2172624 2173123 2173924 2174716 2175665 2176530 2177490 2178499 2178681 2176677 2174831 2173890 2173142 2172659 2172664 2172764 2172791 2173016 2173416 2173950 2174689 2175545 2176354 2177322 2178236 2179165 2179492 2177716 2175135 2173259 2171819 2170882 2170498 2170275 2170083 2169929 2170105 2170497 2171038 2171737 2172511 2173432 2174296 2175251 2175499 2173442 2170625 2168555 2166959 2165816 2165307 2165015 2164684 2164553 2164595 2165008 2165547 2166241 2167100 2167959 2168835 2169848 2170070 2168060 2165365 2163334 2161738 2160794 2160297 2160036 2159693 2159657 2159810 2160116 2160814 2161647 2162378 2163289 2164220 2165197 2165290 2163125 2160623 2158741 2157323 2156409 2156039 2155844 2155528 2155475 2155642 2156048 2156720 2157616 2158398 2159341 2160337 2161155 2160404 2157788 2155471 2153871 2152606 2152112 2151858 2151634 2151404 2151504 2151857 2152465 2153231 2154036 2155029 2156027 2157092 2157616 2156092 2153445 2151450 2149872 2148729 2148186 2148007 2147733 2147694 2147848 2148460 2149165 2150039 2150855 2151924 2152882 2153815 2153091 2150686 2148569 2147076 2145866 2145420 2145221 2145073 2144980 2145054 2145543 2146268 2146999 2147957 2148816 2149977 2150943 2151265 2149599 2147249 2145637 2144295 2143473 2143324 2143240 2143063 2143097 2143479 2144037 2144859 2145616 2146486 2147440 2148541 2149526 2149829 2147854 2145649 2143996 2142657 2141901 2141672 2141608 2141277 2141349 2141647 2142258 2142949 2143810 2144673 2145659 2146650 2147732 2147988 2146183 2143974 2142277 2140894 2140046 2139727 2139541 2139228 2139150 2139505 2140071 2140795 2141592 2142467 2143402 2144393 2145485 2145639 2143634 2141330 2139602 2138096 2137317 2136939 2136673 2136473 2136428 2136745 2137317 2138010 2138943 2139838 2140849 2141869 2143035 2143753 2142426 2140155 2138315 2136840 2135805 2135423 2135202 2134955 2134893 2135048 2135535 2136247 2137151 2138074 2139067 2140132 2141152 2142136 2141503 2139163 2137066 2135611 2134342 2133815 2133600 2133413 2133266 2133435 2133896 2134547 2135419 2136347 2137288 2138425 2139525 2140585 2140247 2138102 2135784 2134231 2132978 2132277 2132061 2131968 2131822 2131935 2132287 2132982 2133802 2134768 2135734 2136815 2137939 2138949 2138692 2136469 2134574 2133073 2132030 2131550 2131553 2131544 2131494 2131697 2132222 2132977 2133786 2134780 2135820 2136967 2138040 2138521 2136965 2134991 2133563 2132466 2131936 2131908 2131932 2131962 2132102 2132578 2133330 2134208 2135200 2136261 2137347 2138516 2139016 2137672 2135894 2134782 2134022 2133620 2133734 2133882 2134137 2134440 2135061 2135763 2136777 2137785 2138784 2139955 2141029 2141376 2140077 2138742 2137899 2137262 2137126 2137374 2137541 2137796 2138207 2138749 2139541 2140492 2141451 2142483 2143613 2144656 2144709 2143393 2142190 2141449 2140842 2140835 2141132 2141282 2141533 2142113 2142694 2143520 2144513 2145419 2146461 2147476 2148309 2147880 2146410 2145232 2144437 2143881 2143729 2143905 2143894 2144022 2144311 2144906 2145584 2146378 2147150 2148106 2149041 2149837 2149065 2147319 2145840 2144673 2143765 2143458 2143392 2143210 2143159 2143265 2143637 2144217 2144869 2145685 2146547 2147370 2147829 2146271 2144099 2142423 2141125 2140171 2139874 2139582 2139303 2139175 2139345 2139775 2140432 2141150 2142047 2142852 2143833 2143812 2141713 2139092 2137321 2135737 2134717 2134325 2134016 2133578 2133390 2133614 2134191 2134812 2135682 2136544 2137510 2138600 2137153 2134473 2132217 2130637 2129223 2128780 2128490 2128321 2128173 2128344 2128812 2129572 2130483 2131423 2132529 2133630 2134217 2132229 2129478 2127455 2125805 2124627 2124351 2124127 2123853 2123757 2124160 2124828 2125726 2126715 2127748 2128944 2130150 2130553 2128531 2125984 2124282 2122852 2122090 2121953 2121900 2121762 2121970 2122387 2123246 2124156 2125316 2126426 2127724 2128855 2128493 2126192 2124082 2122550 2121286 2120826 2120849 2120846 2120915 2121272 2121891 2122767 2123856 2124983 2126288 2127560 2128618 2127566 2125270 2123544 2122232 2121206 2121135 2121271 2121293 2121523 2122080 2122897 2123942 2125057 2126250 2127608 2128803 2128562 2126537 2124797 2123552 2122615 2122338 2122597 2122730 2122849 2123280 2124049