2189552 2189653 2189613 2189491 2189316 2189294 2082948 2082987 2082996 2101424 2101488 2101489 2101469 2091038 2090658 2090007 2095397 2094427 2092271 2086754 2080668 2075568 2071460 2068219 2065043 2061634 2058530 2056134 2054439 2053088 2051911 2050859 2050029 2049283 2046747 2040320 2033969 2029428 2025810 2023117 2020207 2017168 2014453 2012595 2011277 2010309 2009601 2008857 2008418 2008052 2005360 1999236 1993709 1989923 1986857 1984632 1982365 1979755 1977646 1976248 1975430 1974999 1974730 1974643 1974778 1974793 1971516 1965522 1961101 1958050 1955812 1954293 1952453 1950579 1949330 1948825 1948764 1949000 1949392 1949850 1950442 1949622 1944470 1939118 1935789 1933620 1932390 1931465 1930138 1928980 1928614 1928729 1929169 1929852 1930639 1931588 1932281 1929082 1922886 1917942 1914464 1911647 1910199 1908908 1907582 1906943 1907151 1907795 1908815 1909982 1911187 1912623 1914087 1913384 1907761 1902355 1898683 1895823 1894466 1893765 1893079 1892779 1893173 1894217 1895705 1897240 1898852 1900592 1902477 1904464 1906391 1904667 1899123 1895012 1892516 1890817 1890327 1889981 1889589 1889962 1890890 1892257 1894068 1895761 1897660 1899669 1901542 1903629 1905758 1904698 1900158 1897019 1895343 1894682 1894856 1895034 1895048 1895553 1896909 1898564 1900360 1902292 1904342 1906368 1908387 1910629 1912641 1911249 1907150 1904183 1902620 1901718 1901804 1901840 1901980 1902500 1903613 1905235 1906982 1908759 1910716 1912672 1914639 1916787 1918714 1917661 1913732 1911140 1909774 1909096 1909289 1909469 1909556 1910076 1911265 1912673 1914477 1916212 1918056 1919925 1921849 1923890 1925888 1925205 1921906 1919963 1919255 1919292 1919712 1920242 1920384 1921128 1922285 1923866 1925512 1927258 1929032 1930930 1932782 1934711 1936130 1934452 1931692 1930292 1929896 1930152 1930696 1930966 1931318 1932150 1933307 1934756 1936375 1937974 1939626 1941339 1943130 1944951 1945983 1943735 1940864 1939466 1938925 1938962 1939305 1939451 1939655 1940260 1941288 1942589 1943983 1945498 1946900 1948523 1950126 1951881 1953159 1951603 1948766 1947525 1947315 1947453 1947931 1948251 1948325 1948837 1949852 1950994 1952364 1953776 1955176 1956629 1958216 1959711 1959973 1957676 1956033 1955643 1955979 1956672 1957121 1957244 1957527 1958406 1959513 1960689 1962000 1963296 1964666 1966107 1967318 1966171 1963686 1962423 1962173 1962376 1962794 1962819 1962871 1963254 1964102 1965000 1966104 1967285 1968472 1969653 1970729 1969700 1966379 1964303 1963159 1962571 1962407 1962172 1961754 1961600 1962051 1962584 1963499 1964363 1965386 1966353 1967473 1967682 1964550 1961358 1959696 1958614 1958162 1957775 1957174 1956762 1956936 1957571 1958253 1959049 1960089 1961093 1962199 1963312 1962911 1959625 1957011 1955753 1955139 1954998 1954722 1954218 1954040 1954478 1955209 1955977 1956894 1957930 1959090 1960161 1961362 1960745 1957697 1955840 1955218 1955070 1955180 1955023 1954770 1954936 1955570 1956416 1957379 1958526 1959557 1960711 1961951 1962326 1959797 1957411 1956356 1955976 1956011 1956052 1955828 1955864 1956420 1957266 1958331 1959389 1960494 1961628 1962941 1963907 1962254 1959403 1957536 1956681 1956182 1956066 1955839 1955793 1956077 1956699 1957700 1958716 1959807 1960941 1962164 1963550 1964222 1962077 1959184 1957707 1956697 1956254 1956105 1956037 1955941 1956368 1957063 1958015 1959140 1960252 1961409 1962698 1964043 1965312 1965111 1962450 1960397 1959590 1959102 1959148 1959234 1959209 1959438 1960131 1961127 1962111 1963355 1964485 1965697 1967040 1968398 1969769 1970296 1968202 1966469 1965809 1965748 1966068 1966303 1966346 1966594 1967366 1968280 1969345 1970412 1971634 1972758 1973936 1975261 1976513 1976002 1974150 1973285 1973201 1973427 1973959 1974155 1974385 1974888 1975671 1976660 1977757 1978818 1979921 1981062 1982359 1983376 1982815 1980823 1979491 1979006 1978939 1979240 1979213 1979154 1979480 1979966 1980821 1981656 1982695 1983618 1984587 1985600 1986529 1985177 1982542 1980988 1980103 1979498 1979312 1979091 1978687 1978741 1979116 1979725 1980425 1981157 1982017 1982912 1983850 1984826 1984115 1981227 1979157 1978175 1977572 1977322 1976865 1976422 1976321 1976616 1977119 1977771 1978458 1979357 1980197 1981062 1982155 1982759 1980630 1977907 1976494 1975922 1975749 1975604 1975071 1974792 1974836 1975288 1975988 1976698 1977460 1978304 1979191 1980239 1980993 1979445 1976703 1975196 1974617 1974579 1974513 1974186 1973773 1973874 1974390 1974987 1975848 1976681 1977515 1978473 1979528 1979820 1977429 1974647 1973068 1972256 1971878 1971686 1971105 1970591 1970790 1971263 1971817 1972570 1973421 1974248 1975241 1976278 1976157 1973285 1970694 1969290 1968517 1968189 1967872 1967271 1967011 1967176 1967707 1968467 1969208 1970091 1971024 1972060 1973144 1972589 1969747 1967550 1966472 1966121 1966028 1965760 1965214 1965211 1965602 1966176 1967084 1967944 1968880 1969927 1970942 1971569 1969544 1966978 1965762 1965283 1965223 1965159 1964789 1964584 1964832 1965558 1966318 1967356 1968269 1969248 1970455 1970952 1968520 1965627 1964221 1963357 1963119 1962851 1962317 1962089 1962254 1962880 1963622 1964488 1965461 1966600 1967613 1968147 1965456 1962085 1960086 1958746 1958021 1957488 1956833 1956352 1956436 1956904 1957570 1958519 1959421 1960408 1961581 1962480 1960582 1956988 1954665 1953258 1952246 1951797 1951159 1950696 1950757 1951274 1952067 1952995 1954049 1955121 1956307 1957672 1959054 1956825 1953702 1952036 1951216 1950930 1950947 1950559 1950350 1950765 1951475 1952541 1953627 1954861 1956102 1957404 1958942 1960097 1958673 1956253 1955050 1954627 1954944 1955182 1955217 1955448 1956015 1956936 1958169 1959378 1960701 1962037 1963439 1964885 1966320 1965370 1962908 1961543 1961011 1960893 1961197 1961247 1961377 1961946 1962758 1963857 1965062 1966291 1967685 1968956 1970323 1971835 1971791 1969658 1968300 1967778 1967770 1968141 1968352 1968555 1969024 1969874 1970935 1972068 1973186 1974493 1975790 1977145 1978514 1979594 1978660 1976997 1976492 1976517 1976963 1977371 1977700 1977983 1978644 1979600 1980668 1981737 1982935 1984104 1985348 1986522 1987856 1988373 1987081 1986184 1986157 1986675 1987525 1987961 1988254 1988723 1989445 1990393 1991401 1992525 1993619 1994615 1995812 1996905 1997321 1995896 1994640 1994394 1994589 1994995 1995368 1995438 1995778 1996254 1997066 1997972 1998854 1999808 2000766 2001704 2002697 2002621 2000498 1998901 1998412 1998269 1998523 1998597 1998455 1998415 1998771 1999391 2000136 2000819 2001761 2002639 2003401 2004265 2003900 2001407 1999564 1998958 1998854 1998954 1998738 1998310 1998170 1998357 1998831 1999427 2000085 2000758 2001523 2002281 2002717 2000725 1998211 1997070 1996771 1996915 1996954 1996486 1996108 1996144 1996601 1997078 1997763 1998465 1999184 1999984 2000581 1998679 1995245 1993331 1992375 1991994 1991549 1990795 1990034 1989740 1989781 1990185 1990630 1991115 1991769 1992490 1993091 1991431 1987288 1984344 1982757 1981717 1980959 1980036 1978828 1978202 1978143 1978408 1978754 1979285 1979822 1980611 1981264 1981380 1977966 1974120 1972041 1970923 1970333 1969597 1968513 1967669 1967469 1967734 1968275 1968895 1969652 1970304 1971192 1971984 1970105 1966256 1963992 1963030 1962708 1962431 1961619 1961007 1960897 1961291 1961973 1962796 1963761 1964755 1965796 1966897 1965297 1961472 1959016 1957861 1957182 1957059 1956384 1955675 1955567 1956079 1956818 1957744 1958726 1959802 1960991 1962166 1960572 1956746 1954069 1952733 1951848 1951578 1950971 1950384 1950312 1950882 1951683 1952739 1953896 1955163 1956377 1957797 1958540 1955926 1952659 1951029 1950205 1949825 1949809 1949327 1949226 1949680 1950486 1951511 1952810 1954065 1955463 1956813 1958266 1959663 1958351 1955526 1954112 1953642 1953701 1953821 1953634 1953625 1954090 1955040 1956048 1957326 1958678 1959871 1961336 1962913 1964281 1963480 1961312 1960323 1960107 1960391 1960896 1960895 1961155 1961679 1962599 1963769 1965091 1966373 1967676 1969071 1970540 1971916 1970627 1968318 1967189 1966684 1966664 1966874 1966905 1966865 1967355 1968221 1969245 1970414 1971580 1972793 1974076 1975543 1976857 1975539 1973000 1971686 1971056 1970807 1970914 1970900 1970847 1971253 1971936 1972867 1974033 1975176 1976279 1977518 1978951 1980233 1980633 1978368 1976469 1975742 1975474 1975567 1975570 1975394 1975573 1976264 1977052 1978024 1979158 1980198 1981300 1982460 1983781 1984650 1982781 1980682 1979853 1979699 1979916 1980023 1979897 1979874 1980350 1981101 1981966 1983001 1983986 1984925 1985972 1987204 1987962 1986102 1983529 1982364 1981888 1981850 1981821 1981497 1981308 1981538 1982241 1983024 1983868 1984800 1985731 1986751 1987852 1987981 1984936 1981980 1980406 1979468 1978948 1978546 1977918 1977476 1977584 1978046 1978695 1979472 1980294 1981207 1982111 1983126 1983460 1980099 1976821 1974923 1973723 1973061 1972635 1971846 1971351 1971306 1971808 1972498 1973212 1974159 1974995 1976018 1977138 1978072 1976049 1972620 1970773 1969846 1969472 1969340 1968918 1968439 1968432 1969031 1969810 1970672 1971640 1972688 1973895 1974992 1976235 1975402 1972221 1970410 1969653 1969581 1969693 1969411 1969206 1969420 1970050 1970851 1971900 1972975 1974097 1975339 1976588 1977830 1977232 1974306 1972608 1972123 1972183 1972847 1973423 1973885 1974424 1975242 1976153 1977233 1978645 1979789 1980933 1982222 1983477 1982505 1979795 1978473 1978176 1978317 1978560 1978439 1978271 1978535 1979160 1979995 1980992 1982047 1983079 1984184 1985359 1986252 1984520 1982199 1981350 1981420 1981725 1982001 1981779 1981846 1982251 1983029 1983918 1984903 1985905 1986883 1988010 1989009 1987754 1984822 1983234 1982575 1982310 1982364 1982046 1981453 1981589 1982181 1982828 1983584 1984461 1985326 1986400 1987270 1985434 1981983 1979620 1978126 1977050 1976570 1975818 1975071 1974787 1974919 1975413 1975989 1976700 1977489 1978346 1979195 1977888 1973717 1970497 1968183 1966386 1965344 1964365 1963206 1962649 1962541 1962960 1963349 1964178 1964787 1965753 1966705 1967649 1965581 1961408 1958441 1956342 1954993 1954205 1953347 1952626 1952457 1952774 1953369 1954257 1955195 1956154 1957351 1958542 1959888 1961138 1959187 1955644 1953446 1952174 1951514 1951320 1950884 1950629 1950812 1951611 1952616 1953706 1954933 1956209 1957602 1959056 1960676 1962260 1962333 1959582 1957730 1957212 1957044 1957464 1957571 1957598 1958259 1959221 1960416 1961759 1963199 1964595 1965986 1967508 1969248 1970567 1969690 1967752 1967176 1967303 1967982 1968626 1968843 1969349 1970185 1971324 1972597 1973986 1975341 1976781 1978167 1979609 1981019 1980566 1978770 1978115 1978271 1978688 1979386 1979745 1980084 1980863 1981845 1982991 1984262 1985450 1986751 1988099 1989460 1990458 1989169 1987520 1987029 1986944 1987139 1987648 1987845 1988202 1988742 1989714 1990723 1991908 1992994 1994264 1995329 1996585 1996691 1994619 1993007 1992401 1992031 1992124 1992214 1992178 1992273 1992815 1993459 1994326 1995224 1996264 1997193 1998329 1999339 1999002 1996665 1994837 1994022 1993467 1993426 1993352 1993013 1992994 1993351 1993989 1994674 1995440 1996300 1997228 1998059 1999143 1999288 1996911 1994769 1993969 1993527 1993545 1993424 1992992 1992913 1993207 1993750 1994480 1995154 1995993 1996758 1997733 1998659 1999199 1997288 1995064 1994209 1993844 1994223 1994171 1993898 1993695 1994087 1994563 1995236 1996155 1996955 1997786 1998609 1999595 2000068 1998103 1995903 1995006 1994972 1995293 1995268 1994967 1994871 1995121 1995802 1996476 1997360 1998150 1999002 1999921 2000872 1999968 1996829 1994899 1994119 1993701 1993667 1993301 1992788 1992635 1992922 1993470 1994203 1994944 1995695 1996531 1997426 1997449 1994226 1991040 1989345 1988332 1987700 1987189 1986380 1985722 1985718 1985979 1986561 1987194 1987899 1988690 1989505 1990395 1989665 1985782 1982990 1981469 1980472 1979948 1979331 1978542 1978114 1978346 1978771 1979360 1980227 1980933 1981750 1982706 1983663 1981764 1978289 1976376 1975344 1974896 1974796 1974157 1973636 1973682 1974162 1974731 1975637 1976479 1977491 1978433 1979530 1979934 1977270 1974905 1973904 1973718 1973918 1973833 1973480 1973465 1973835 1974616 1975673 1976527 1977544 1978752 1979923 1980840 1978969 1976644 1975730 1975552 1975975 1976248 1976020 1976243 1976815 1977607 1978772 1979890 1981067 1982250 1983614 1984498 1982771 1980339 1979254 1978924 1978895 1979050 1978839 1978749 1979119 1979828 1980823 1981828 1982862 1983850 1985048 1985355 1982725 1980473 1979468 1978950 1978946 1979026 1978758 1978802 1979320 1980132 1981147 1982144 1983221 1984387 1985385 1984147 1981575 1980274 1979795 1979808 1980054 1980069 1979946 1980430 1981176 1982082 1983246 1984378 1985559 1986670 1987635 1986023 1983880 1983060 1983064 1983560 1983897 1983944 1984151 1984809 1985623 1986704 1987848 1988924 1990137 1991365 1992433 1991266 1989235 1988627 1988777 1989404 1989735 1989885 1990046 1990475 1991300 1992256 1993312 1994401 1995525 1996637 1997306 1995762 1993976 1993583 1993852 1994505 1994939 1994979 1995283 1995752 1996588 1997606 1998571 1999589 2000716 2001679 2000972 1998282 1996567 1996089 1996087 1996356 1996263 1996004 1996097 1996603 1997204 1998114 1998985 1999789 2000860 2001194 1998303 1995351 1994071 1993492 1993458 1993266 1992669 1992304 1992473 1992884 1993510 1994251 1995055 1995966 1996763 1995860 1992077 1989688 1988646 1988164 1988058 1987628 1987002 1986760 1987031 1987714 1988423 1989240 1989960 1990943 1991514 1988995 1985642 1984118 1983622 1983634 1983475 1982803 1982446 1982598 1983103 1983811 1984533 1985433 1986325 1987277 1986299 1983017 1981090 1980597 1980842 1980993 1980568 1980111 1980288 1980791 1981561 1982460 1983407 1984332 1985279 1984318 1980826 1978840 1978176 1978253 1978346 1978082 1977585 1977592 1978247 1979027 1979986 1980896 1981895 1982797 1980370 1976471 1974199 1973115 1972578 1972268 1971620 1970952 1970973 1971454 1972154 1973034 1973945 1974947 1975846 1973857 1970012 1967757 1966483 1965765 1965585 1964972 1964481 1964631 1965191 1966002 1966949 1968038 1969126 1970386 1970415 1967311 1964880 1963731 1963308 1963401 1963336 1963095 1963213 1963869 1964783 1965841 1966975 1968170 1969538 1970795 1970113 1967506 1966160 1965884 1966119 1966525 1966529 1966643 1967199 1968149 1969153 1970402 1971650 1972854 1974151 1975260 1973619 1971618 1971016 1971053 1971637 1971980 1972000 1972291 1973097 1974027 1975221 1976280 1977535 1978858 1979999 1979257 1976924 1975644 1975343 1975259 1975581 1975598 1975622 1976191 1976903 1977959 1978991 1980115 1981265 1982419 1983375 1981670 1979488 1978520 1978013 1978016 1978101 1978137 1978118 1978771 1979620 1980560 1981623 1982561 1983727 1984952 1986055 1985564 1983394 1982132 1981720 1981552 1981861 1981995 1982051 1982509 1983188 1984198 1985159 1986228 1987215 1988418 1989613 1990729 1990381 1988445 1987432 1987302 1987559 1988011 1988087 1988241 1988671 1989435 1990410 1991268 1992338 1993328 1994339 1995490 1996589 1996387 1994587 1993776 1993884 1994349 1994915 1995062 1995249 1995749 1996380 1997346 1998241 1999231 2000143 2001121 2002121 2002894 2001560 1999926 1999426 1999590 2000096 2000446 2000423 2000580 2001073 2001802 2002595 2003597 2004417 2005337 2006288 2007057 2005593 2003164 2001867 2001326 2001135 2001154 2000858 2000572 2000572 2001106 2001732 2002377 2003188 2003985 2004712 2005499 2004702 2001529 1999147 1998010 1997278 1997037 1996520 1995779 1995568 1995649 1996111 1996733 1997388 1998077 1998797 1999628 2000295 1998001 1994744 1993014 1992191 1991914 1991706 1991072 1990602 1990542 1990966 1991581 1992277 1993086 1993769 1994629 1995593 1995446 1992369 1990089 1989236 1989136 1989247 1988946 1988507 1988358 1988676 1989321 1990140 1991007 1991815 1992662 1993624 1994010 1991253 1988782 1987753 1987489 1987607 1987587 1987122 1986941 1987300 1987957 1988812 1989659 1990572 1991518 1992483 1991991 1988630 1986180 1985034 1984243 1984100 1983708 1983144 1982918 1983284 1983875 1984627 1985456 1986274 1987179 1988180 1987725 1984105 1981467 1980198 1979335 1978912 1978552 1977965 1977850 1978125 1978798 1979604 1980446 1981452 1982499 1983473 1984012 1981244 1978423 1977053 1976390 1976251 1976060 1975710 1975496 1975884 1976658 1977527 1978530 1979511 1980600 1981735 1982977 1983984 1982130 1979423 1978480 1978204 1978473 1978671 1978405 1978498 1978925 1979744 1980694 1981772 1982848 1983967 1985062 1986270 1986985 1985040 1983187 1982683 1982943 1983556 1983713 1983621 1983878 1984560 1985455 1986417 1987556 1988599 1989785 1990915 1991933 1990339 1987934 1986850 1986606 1986807 1986910 1986741 1986640 1986992 1987625 1988443 1989443 1990401 1991338 1992428 1993391 1991977 1988802 1987004 1986121 1985640 1985497 1985056 1984580 1984561 1985015 1985560 1986415 1987239 1988035 1989041 1990041 1989151 1985767 1983396 1982267 1981668 1981383 1980916 1980339 1980286 1980652 1981329 1982118 1982968 1983944 1984908 1985999 1986765 1984724 1981545 1980060 1979439 1979256 1979210 1978716 1978439 1978717 1979286 1980030 1980856 1981845 1982755 1983787 1984812 1984792 1981940 1980000 1979446 1979450 1979702 1979536 1979202 1979401 1979918 1980769 1981714 1982704 1983676 1984736 1985896 1985978 1983067 1980688 1979791 1979360 1979426 1979156 1978717 1978739 1979163 1979847 1980716 1981671 1982602 1983598 1984698 1984866 1981764 1979071 1977718 1977066 1976912 1976496 1975937 1975742 1976048 1976690 1977514 1978423 1979340 1980359 1981495 1982467 1980495 1977319 1975545 1974854 1974619 1974492 1973983 1973599 1973707 1974283 1975046 1975999 1976914 1977837 1978981 1980034 1979769 1976640 1974382 1973549 1973289 1973400 1972991 1972596 1972480 1973049 1973735 1974617 1975564 1976433 1977439 1978517 1977848 1974431 1971942 1970721 1970159 1970037 1969413 1968783 1968607 1968995 1969732 1970475 1971419 1972257 1973157 1974185 1973703 1969881 1966680 1964419 1963219 1962642 1961826 1961027 1960818 1961027 1961733 1962507 1963386 1964286 1965336 1966478 1967633 1965956 1962012 1959326 1957746 1956787 1956427 1955709 1955122 1955089 1955703 1956585 1957576 1958678 1959773 1961003 1962449 1963813 1964869 1962176 1959012 1957640 1956928 1956857 1956916 1956459 1956409 1956943 1957770 1958908 1960029 1961337 1962566 1963873 1965480 1966858 1966697 1963870 1962243 1961800 1961892 1962350 1962453 1962418 1962935 1963905 1965116 1966335 1967706 1969051 1970431 1971910 1973464 1974566 1972594 1970135 1969080 1968836 1968947 1969244 1969077 1969272 1969887 1970954 1972022 1973249 1974531 1975790 1977083 1978444 1980016 1981075 1979259 1976897 1976051 1975903 1976164 1976357 1976384 1976336 1976948 1977790 1978890 1979969 1981189 1982412 1983687 1985067 1986395 1986443 1984247 1982898 1982775 1983014 1983612 1983898 1983879 1984365 1985141 1986088 1987174 1988292 1989456 1990576 1991847 1993128 1993392 1991083 1989533 1989270 1989391 1989819 1990029 1989884 1989998 1990609 1991442 1992451 1993445 1994454 1995436 1996589 1997389 1995595 1992811 1991431 1990969 1990818 1990800 1990542 1990115 1990282 1990749 1991442 1992202 1993058 1993968 1994919 1995752 1993956 1989973 1987520 1985987 1984814 1984267 1983435 1982467 1982054 1982224 1982560 1983225 1983896 1984550 1985402 1986341 1986549 1982880 1978942 1976470 1974765 1973657 1972796 1971668 1970881 1970649 1970983 1971491 1972246 1972911 1973739 1974676 1975795 1976412 1973219 1969357 1967234 1965849 1965115 1964694 1963720 1963306 1963409 1963951 1964779 1965663 1966607 1967650 1968808 1970067 1971395 1971173 1967604 1965227 1964174 1963756 1963849 1963522 1963120 1963258 1963894 1964817 1965839 1967010 1968152 1969503 1970849 1972187 1973163 1970884 1968428 1967580 1967445 1967890 1968099 1968010 1968209 1969025 1970036 1971264 1972530 1973846 1975310 1976630 1978066 1979333 1977397 1974799 1973596 1973067 1973003 1973228 1973074 1973202 1973687 1974573 1975672 1976836 1978092 1979340 1980599 1982039 1983539 1984012 1981508 1979443 1978653 1978334 1978444 1978571 1978516 1978728 1979327 1980299 1981281 1982531 1983675 1984861 1986197 1987589 1989088 1989651 1987354 1984894 1983374 1981888 1980405 1978840 1977123 1975702 1974783 1974181 1973935 1973858 1974112 1974338 1974574 1975042 1975513 1976174 1974749 1972005 1970320 1969500 1969165 1968966 1968370 1967938 1967771 1967992 1968457 1968939 1969599 1970248 1970896 1971567 1972511 1973307 1972243 1969337 1967368 1966454 1965964 1965710 1965172 1964593 1964414 1964610 1965103 1965588 1966309 1967045 1967760 1968580 1969484 1970137 1968412 1965329 1963701 1962872 1962540 1962280 1961784 1961177 1961107 1961399 1961952 1962707 1963325 1964167 1964815 1965727 1966624 1966186 1963098 1960964 1960294 1960015 1960071 1959732 1959204 1959098 1959432 1959981 1960730 1961485 1962298 1963227 1964144 1965044 1963522 1959943 1957805 1956811 1956265 1955913 1955254 1954557 1954355 1954550 1955041 1955749 1956431 1957243 1958111 1959083 1959262 1955990 1952598 1950769 1949578 1948987 1948420 1947567 1946992 1946990 1947465 1948066 1948714 1949559 1950415 1951356 1952360 1953015 1950101 1946887 1945201 1944190 1943770 1943488 1942914 1942493 1942611 1943260 1943981 1944887 1945805 1946872 1947927 1949403 1949986 1947433 1944791 1943736 1943302 1943424 1943392 1943084 1943007 1943455 1944285 1945219 1946170 1947211 1948375 1949512 1950657 1950555 1948029 1946334 1945838 1945816 1946055 1946033 1945900 1946246 1946912 1947827 1948881 1950006 1951248 1952389 1953676 1954208 1951878 1949673 1948640 1948091 1947878 1947885 1947607 1947561 1947989 1948783 1949695 1950701 1951681 1952857 1953997 1955105 1953807 1951279 1949888 1949035 1948723 1948689 1948592 1948399 1948728 1949341 1950068 1951125 1952147 1953324 1954373 1955676 1956287 1954201 1952231 1951485 1951038 1951080 1951200 1951087 1951229 1951869 1952658 1953650 1954731 1955751 1956816 1958016 1959199 1959311 1957389 1956161 1955803 1955814 1956151 1956224 1956272 1956568 1957299 1958136 1959081 1960116 1961206 1962295 1963507 1964514 1963485 1961772 1961127 1960932 1961150 1961429 1961434 1961685 1962128 1962858 1963859 1964823 1965767 1966861 1967933 1969068 1968913 1967094 1966005 1965551 1965337 1965501 1965505 1965515 1965781 1966395 1967171 1967976 1968806 1969800 1970732 1971723 1972746 1971919 1970083 1968923 1968567 1968443 1968618 1968510 1968629 1968838 1969355 1970151 1970975 1971860 1972730 1973750 1974763 1975743 1975230 1973372 1972449 1972085 1972061 1972376 1972300 1972186 1972586 1973131 1973787 1974547 1975381 1976197 1977064 1977982 1978899 1978187 1976415 1975632 1975455 1975601 1975846 1975741 1975819 1976020 1976564 1977244 1978000 1978869 1979659 1980505 1981448 1981494 1979592 1977929 1977434 1977106 1977248 1977228 1976962 1976966 1977277 1977773 1978520 1979294 1980028 1980764 1981642 1982141 1979950 1977486 1976116 1975338 1974972 1974689 1974160 1973779 1973778 1974015 1974565 1975221 1975856 1976503 1977312 1978192 1977484 1974493 1972232 1971151 1970298 1970071 1969650 1968986 1968845 1969010 1969468 1970057 1970773 1971519 1972341 1973195 1973793 1971602 1968941 1967631 1966993 1966798 1966560 1966079 1965846 1966165 1966613 1967259 1967964 1968807 1969646 1970545 1971114 1969074 1966642 1965624 1965299 1965420 1965310 1964918 1964840 1965078 1965738 1966362 1967334 1968114 1969076 1969908 1970092 1967569 1965288 1964253 1963770 1963799 1963541 1963073 1962970 1963227 1963869 1964576 1965363 1966317 1967209 1968162 1967786 1964850 1962774 1961805 1961190 1961083 1960787 1960297 1960269 1960739 1961351 1962165 1962982 1963824 1964878 1965773 1965571 1962993 1961215 1960442 1960062 1960181 1959964 1959723 1959829 1960344 1961006 1961932 1962835 1963708 1964768 1965786 1965136 1963067 1961876 1961506 1961672 1961907 1961928 1961897 1962254 1962863 1963755 1964746 1965666 1966777 1967838 1968236 1966269 1964540 1963755 1963533 1963758 1963757 1963485 1963709 1964228 1964920 1965831 1966875 1968030 1969083 1969994 1968637 1966231 1964917 1964260 1963983 1963856 1963634 1963475 1963606 1964169 1964890 1965706 1966611 1967525 1968444 1968871 1966607 1964368 1963271 1962635 1962444 1962347 1962023 1961843 1962233 1962757 1963442 1964316 1965343 1966212 1967155 1967622 1965390 1963247 1962344 1961930 1961931 1961842 1961467 1961487 1961815 1962494 1963252 1964126 1964945 1965904 1966865 1967017 1964844 1963192 1962580 1962583 1962818 1962806 1962581 1962788 1963387 1964117 1964996 1965995 1966979 1968025 1968991 1968336 1965315 1964191 1963725 1963713 1963783 1963495 1963405 1963704 1964380 1965198 1966187 1967093 1968187 1969306 1970135 1968546 1965994 1964757 1964207 1964086 1964139 1963836 1963803 1964132 1964720 1965554 1966409 1967447 1968387 1969455 1970591 1970796 1968428 1966528 1965965 1965781 1966056 1965976 1965957 1966076 1966548 1967453 1968384 1969372 1970416 1971400 1972582 1973756 1974338 1972381 1970791 1970466 1970649 1971156 1971257 1971313 1971572 1972213 1973052 1974066 1975027 1976093 1977074 1978151 1979252 1979677 1977939 1976901 1976891 1977420 1978024 1978315 1978375 1978776 1979514 1980324 1981309 1982296 1983290 1984288 1985342 1986104 1984791 1983002 1982472 1982618 1983004 1983287 1983278 1983458 1983838 1984450 1985317 1986122 1987062 1987941 1988869 1989566 1987843 1985579 1984537 1984066 1983949 1983831 1983491 1983353 1983385 1983809 1984412 1985107 1985809 1986518 1987325 1987820 1985837 1983160 1981616 1980820 1980448 1980157 1979479 1978992 1978963 1979135 1979620 1980091 1980732 1981294 1981954 1982621 1981271 1978232 1976352 1975359 1974912 1974437 1973832 1973174 1972999 1973123 1973506 1974184 1974703 1975368 1976014 1976709 1976217 1973421 1971236 1970339 1969998 1969868 1969380 1968878 1968715 1968907 1969417 1970010 1970732 1971465 1972304 1973144 1972354 1969348 1967316 1966482 1966125 1966033 1965539 1965055 1964977 1965360 1965847 1966619 1967340 1968204 1969157 1970028 1969163 1966021 1963803 1962626 1961964 1961680 1961270 1960698 1960657 1960973 1961557 1962383 1963187 1964030 1964892 1965963 1966490 1964117 1961502 1960430 1959718 1959630 1959562 1959268 1959149 1959540 1960231 1961195 1962130 1963146 1964198 1965335 1966567 1966979 1964881 1963150 1962649 1962610 1962945 1963126 1963047 1963281 1963952 1964781 1965853 1966851 1967954 1969002 1970299 1971459 1971309 1969651 1968791 1968757 1969214 1969770 1969956 1970094 1970619 1971262 1972300 1973282 1974355 1975381 1976429 1977530 1977684 1975964 1974924 1974737 1974963 1975337 1975462 1975514 1975816 1976369 1977190 1978020 1978963 1979880 1980817 1981804 1981665 1979526 1977934 1977272 1976907 1976853 1976670 1976399 1976310 1976550 1977088 1977807 1978473 1979186 1979959 1980736 1980822 1978330 1976310 1975193 1974466 1974070 1973724 1973073 1972724 1972896 1973331 1973745 1974350 1975030 1975787 1976531 1977251 1975723 1972981 1971421 1970489 1969992 1969743 1969181 1968663 1968682 1969048 1969542 1970145 1970799 1971524 1972262 1973144 1973354 1970957 1968755 1967644 1967158 1967110 1966738 1966109 1965941 1966124 1966625 1967315 1967982 1968659 1969476 1970366 1971020 1969309 1966829 1965703 1965234 1965299 1965239 1964792 1964653 1964851 1965409 1966174 1967055 1967885 1968784 1969674 1970157 1967644 1965040 1963623 1962890 1962700 1962427 1961840 1961558 1961783 1962292 1963025 1963866 1964809 1965686 1966657 1966713 1963709 1960697 1958851 1957599 1957075 1956678 1955970 1955565 1955715 1956191 1956975 1957734 1958701 1959591 1960560 1961214 1958344 1955266 1953389 1952320 1951751 1951422 1950899 1950592 1950819 1951436 1952161 1953244 1954096 1955232 1956503 1957719 1957156 1954072 1952001 1950998 1950569 1950653 1950473 1950176 1950232 1950944 1951736 1952784 1953866 1954904 1956113 1957317 1958538 1957687 1955089 1953652 1953474 1953624 1953882 1953832 1953857 1954283 1955096 1956108 1957190 1958291 1959433 1960549 1961859 1962453 1960369 1958518 1957866 1957877 1958300 1958439 1958364 1958662 1959186 1960227 1961246 1962264 1963444 1964565 1965823 1966705 1965038 1962639 1961604 1961149 1961255 1961368 1961176 1961106 1961503 1962351 1963278 1964318 1965380 1966463 1967553 1968822 1968365 1965787 1964169 1963626 1963522 1963683 1963608 1963480 1963640 1964314 1965088 1966075 1967141 1968127 1969289 1970383 1971300 1969567 1967472 1966655 1966443 1966821 1966957 1966768 1966735 1967321 1967949 1968875 1969798 1970790 1971766 1972762 1973742 1972322 1970123 1969268 1969181 1969531 1969693 1969462 1969524 1969889 1970683 1971544 1972487 1973523 1974506 1975397 1975563 1972893 1970610 1969480 1968926 1968889 1968569 1968104 1967877 1968224 1968766 1969444 1970247 1971126 1972014 1972857 1971706 1968260 1965888 1964559 1963626 1963287 1962559 1961864 1961667 1961876 1962448 1963066 1963833 1964590 1965512 1966398 1964821 1961337 1959027 1957812 1957080 1956773 1956213 1955631 1955548 1956024 1956598 1957392 1958238 1959083 1960207 1961160 1960419 1956568 1954838 1954060 1953799 1953766 1953252 1952954 1953176 1953760 1954592 1955379 1956405 1957406 1958528 1959496 1958022 1955397 1953971 1953536 1953731 1953829 1953550 1953413 1953783 1954602 1955545 1956684 1957745 1958850 1960004 1960549 1958238 1955751 1954447 1953777 1953753 1953706 1953301 1953261 1953734 1954543 1955389 1956421 1957577 1958667 1959835 1960132 1957495 1955177 1954006 1953322 1953190 1953134 1952804 1952906 1953453 1954312 1955376 1956406 1957508 1958789 1959983 1960976 1959416 1957263 1956315 1955832 1955840 1956089 1956117 1956332 1956984 1957874 1958976 1960148 1961354 1962524 1963894 1965294 1965687 1963902 1962806 1962630 1962822 1963391 1963728 1963940 1964424 1965346 1966427 1967588 1968723 1969986 1971217 1972531 1973520 1972608 1971568 1971452 1971892 1972559 1973170 1973420 1973950 1974676 1975673 1976724 1977775 1978932 1980091 1981214 1982176 1981071 1979909 1979568 1979895 1980400 1980770 1980935 1981233 1981849 1982671 1983552 1984534 1985521 1986533 1987557 1988142 1986458 1984899 1984292 1984164 1984350 1984460 1984377 1984288 1984802 1985491 1986204 1987023 1987879 1988730 1989689 1990311 1988262 1986318 1985492 1985316 1985369 1985439 1985241 1985171 1985478 1986127 1986799 1987512 1988358 1989253 1990176 1990862 1989253 1986937 1986035 1985879 1986050 1986192 1986003 1985885 1986109 1986620 1987314 1988103 1988958 1989739 1990621 1991433 1990482 1988148 1987013 1987030 1987438 1987596 1987508 1987262 1987531 1988087 1988709 1989584 1990415 1991245 1992081 1992504 1990210 1988046 1987267 1987254 1987629 1987663 1987265 1987156 1987492 1988160 1988774 1989554 1990370 1991207 1991628 1988923 1985955 1984502 1983871 1983719 1983562 1982912 1982509 1982554 1982940 1983534 1984205 1984844 1985573 1985937 1982922 1979670 1977940 1977052 1976619 1976209 1975435 1974863 1974809 1975098 1975568 1976314 1976914 1977662 1977413 1974050 1971422 1970199 1969660 1969598 1969209 1968555 1968340 1968601 1969163 1969837 1970692 1971461 1972259 1970682 1967672 1966292 1965734 1965825 1965888 1965426 1965292 1965558 1966078 1966813 1967707 1968611 1969654 1969637 1967249 1965486 1965114 1965281 1965742 1965689 1965522 1965816 1966416 1967242 1968201 1969184 1970138 1970695 1968566 1966569 1965813 1965670 1966070 1966032 1965963 1966126 1966735 1967600 1968588 1969530 1970674 1971577 1970294 1967701 1966468 1965838 1965681 1965824 1965548 1965537 1965949 1966596 1967459 1968349 1969367 1970429 1971291 1969916 1967838 1966847 1966458 1966564 1966767 1966753 1966910 1967343 1968205 1969152 1970210 1971301 1972450 1973559 1973861 1972138 1971031 1970798 1970859 1971302 1971565 1971686 1972145 1972890 1973895 1974905 1975959 1977064 1978208 1979341 1979154 1977806 1977269 1977401 1977948 1978435 1978646 1978884 1979541 1980327 1981239 1982330 1983310 1984268 1985390 1986214 1985192 1984008 1983707 1983816 1984361 1984602 1984625 1984899 1985481 1986267 1987092 1988040 1988984 1989949 1990836 1991224 1989474 1987875 1987263 1986822 1986892 1986701 1986507 1986585 1986958 1987543 1988166 1988903 1989642 1990437 1991315 1991275 1989118 1987168 1986355 1985878 1985767 1985556 1985187 1985137 1985290 1985939 1986550 1987222 1987898 1988681 1989463 1990153 1988425 1986089 1984979 1984573 1984506 1984432 1984094 1983841 1984017 1984415 1985012 1985748 1986425 1987196 1987973 1988582 1987017 1984662 1983530 1983243 1983494 1983483 1983008 1982852 1983087 1983533 1984329 1985023 1985706 1986596 1987339 1987597 1984875 1982146 1981006 1980313 1980056 1979704 1978960 1978583 1978688 1979081 1979652 1980208 1980929 1981692 1982471 1981940 1978689 1975991 1974775 1974027 1973804 1973203 1972453 1972128 1972309 1972793 1973435 1974137 1974951 1975701 1976556 1976526 1973308 1970857 1969804 1969291 1969291 1969008 1968424 1968252 1968656 1969369 1970024 1970936 1971817 1972781 1973877 1973736 1971150 1969199 1968531 1968612 1968903 1968812 1968451 1968651 1969115 1969982 1970847 1971825 1972771 1973888 1974770 1973303 1970703 1969398 1969091 1969281 1969461 1969194 1968996 1969356 1969995 1970799 1971723 1972815 1973756 1974713 1974609 1971545 1969072 1967919 1967292 1967010 1966493 1965926 1965634 1966005 1966572 1967390 1968198 1969138 1970117 1971090 1970152 1966922 1964669 1963663 1963084 1963083 1962631 1962113 1962205 1962592 1963281 1964193 1965119 1966053 1967101 1968115 1968386 1965670 1963515 1962564 1962267 1962365 1962191 1961817 1961834 1962338 1963008 1963981 1964908 1965924 1966966 1968084 1968923 1967125 1964730 1963853 1963649 1963926 1964109 1963810 1963804 1964272 1965040 1966020 1966957 1968004 1969203 1970233 1971218 1969340 1966619 1965474 1964984 1964953 1964991 1964668 1964464 1964756 1965486 1966346 1967330 1968292 1969347 1970549 1971242 1968996 1966043 1964596 1963686 1963380 1963268 1962759 1962454 1962594 1963201 1963985 1964908 1965870 1966904 1967919 1968967 1967297 1964089 1962341 1961474 1961145 1961065 1960624 1960207 1960265 1960895 1961687 1962616 1963556 1964564 1965654 1966636 1966909 1964080 1961754 1960780 1960454 1960461 1960184 1959738 1959664 1960098 1960780 1961618 1962560 1963500 1964462 1965482 1966393 1964709 1961931 1960576 1960258 1960352 1960355 1959836 1959707 1959897 1960638 1961449 1962458 1963264 1964203 1965359 1966273 1964479 1961461 1959886 1959021 1958808 1958667 1958093 1957724 1957939 1958471 1959396 1960294 1961245 1962277 1963405 1964531 1963767 1960654 1958526 1957341 1956713 1956539 1956209 1955819 1955882 1956469 1957272 1958202 1959291 1960280 1961503 1962677 1963962 1963070 1960349 1958807 1958077 1957884 1957940 1957960 1957828 1958288 1959112 1960016 1961109 1962281 1963520 1964743 1966077 1967511 1967852 1965753 1964566 1964277 1964442 1964808 1965084 1965240 1965708 1966581 1967611 1968700 1969854 1970964 1972176 1973378 1974705 1975003 1973474 1972711 1972801 1973301 1973867 1974190 1974461 1975025 1975823 1976779 1977810 1978885 1980008 1981116 1982249 1983210 1982271 1980776 1980344 1980208 1980648 1980728 1980796 1980992 1981512 1982169 1982989 1983788 1984646 1985524 1986425 1987297 1986073 1983865 1982640 1981965 1981539 1981446 1981028 1980720 1980687 1981031 1981588 1982196 1982824 1983535 1984281 1985026 1985484 1983631 1981169 1979827 1979027 1978623 1978286 1977791 1977386 1977450 1977700 1978104 1978768 1979454 1980174 1981026 1981841 1982433 1980517 1978150 1976958 1976324 1976260 1976103 1975659 1975394 1975527 1975975 1976573 1977176 1977969 1978721 1979507 1980445 1981191 1979701 1977465 1976452 1976298 1976453 1976592 1976290 1976198 1976343 1977003 1977756 1978576 1979480 1980331 1981276 1982157 1982209 1979778 1977875 1977160 1976946 1977162 1976958 1976618 1976544 1976855 1977506 1978195 1978939 1979844 1980668 1981586 1982351 1980445 1977611 1976160 1975536 1975411 1975236 1974791 1974357 1974536 1974996 1975643 1976401 1977134 1977959 1978936 1979784 1978498 1975463 1973698 1972997 1972799 1972719 1972238 1971778 1971792 1972171 1972711 1973484 1974290 1975020 1975819 1976762 1977091 1974408 1972056 1971187 1970869 1971013 1970813 1970155 1969965 1970247 1970775 1971461 1972175 1972975 1973868 1974707 1974858 1972145 1969909 1968942 1968660 1968831 1968594 1968020 1967949 1968231 1968857 1969549 1970364 1971256 1972087 1972927 1971856 1968349 1965847 1964539 1963695 1963325 1962588 1961736 1961477 1961707 1962175 1962743 1963473 1964265 1965024 1965937 1964802 1961061 1958468 1957042 1956104 1955574 1954892 1954182 1954017 1954291 1954801 1955595 1956406 1957316 1958232 1959378 1959828 1957265 1954424 1953016 1952242 1952079 1951872 1951503 1951297 1951698 1952419 1953262 1954183 1955233 1956298 1957370 1958545 1958920 1956492 1954623 1954020 1953956 1954300 1954282 1954175 1954433 1955124 1955989 1957065 1958134 1959212 1960441 1961715 1962906 1962269 1960244 1959382 1959243 1959598 1959996 1960079 1960245 1960777 1961705 1962759 1963886 1964983 1966109 1967288 1968517 1969295 1967728 1966071 1965433 1965264 1965520 1965803 1965844 1966007 1966627 1967462 1968458 1969469 1970512 1971673 1972771 1973924 1974622 1972879 1971524 1971140 1971091 1971519 1971787 1971943 1972257 1972837 1973675 1974718 1975697 1976751 1977845 1978938 1980137 1980910 1979707 1978380 1978054 1978166 1978592 1979001 1979042 1979362 1979922 1980753 1981557 1982618 1983618 1984526 1985585 1986674 1987268 1985834 1984687 1984437 1984752 1985278 1985534 1985608 1985879 1986508 1987309 1988121 1989064 1990039 1990924 1991881 1992771 1992295 1990163 1988929 1988649 1988682 1988960 1988825 1988689 1988856 1989246 1989947 1990691 1991438 1992254 1992974 1993832 1994352 1992238 1989806 1988735 1988180 1988099 1987906 1987476 1987168 1987269 1987823 1988432 1989043 1989799 1990562 1991354 1992201 1991696 1988846 1987011 1986408 1986281 1986269 1986007 1985552 1985526 1985912 1986360 1987083 1987840 1988583 1989329 1990193 1990720 1988556 1986275 1985581 1985533 1985778 1985820 1985449 1985304 1985679 1986208 1986966 1987719 1988517 1989392 1990292 1990451 1988229 1986520 1986124 1986245 1986714 1986674 1986570 1986639 1987228 1988032 1989011 1989866 1990803 1991615 1992290 1990463 1987837 1986432 1985853 1985639 1985419 1984874 1984444 1984458 1984773 1985282 1985825 1986398 1987055 1987731 1987212 1984243 1982100 1981049 1980341 1980074 1979627 1978912 1978768 1978865 1979299 1979907 1980457 1981163 1981872 1982556 1981370 1978609 1976879 1976165 1975663 1975591 1975172 1974647 1974648 1975025 1975510 1976228 1976845 1977618 1978454 1979175 1978002 1975608 1974329 1973800 1973766 1973851 1973484 1973192 1973479 1973925 1974659 1975319 1976134 1976924 1977933 1978689 1977070 1974848 1973752 1973341 1973366 1973419 1973121 1973015 1973293 1973888 1974572 1975447 1976265 1977185 1978111 1978845 1977575 1975002 1973531 1972548 1972168 1971914 1971568 1971274 1971347 1971710 1972424 1973092 1973959 1974756 1975728 1976632 1977202 1974934 1972601 1971370 1970714 1970437 1970292 1969808 1969706 1970003 1970570 1971329 1972200 1973074 1973958 1975002 1976091 1976899 1975020 1972898 1972021 1971594 1971788 1971886 1971641 1971612 1972142 1972740 1973613 1974429 1975426 1976363 1977405 1978459 1979460 1978173 1976307 1975568 1975525 1975982 1976086 1976095 1976167 1976631 1977247 1978189 1979056 1979996 1980978 1982000 1983044 1982985 1980710 1979196 1978827 1978760 1979044 1979093 1978899 1978995 1979408 1980152 1980943 1981855 1982679 1983573 1984485 1985089 1982899 1980228 1978944 1978251 1978024 1977799 1977342 1976984 1977052 1977452 1978051 1978793 1979498 1980270 1981056 1981880 1980952 1977716 1975636 1974569 1974073 1973854 1973398 1972935 1972955 1973286 1973863 1974567 1975369 1976164 1977074 1978022 1977899 1974878 1972447 1971544 1971212 1971187 1970936 1970237 1970107 1970409 1970967 1971593 1972433 1973162 1974050 1975019 1975543 1973441 1970866 1969880 1969742 1969929 1969789 1969419 1969213 1969577 1970201 1971004 1971699 1972651 1973500 1974401 1974538 1971570 1969253 1968243 1967961 1968013 1967754 1967245 1967091 1967417 1968084 1968808 1969640 1970570 1971467 1972424 1971114 1967619 1965246 1964124 1963437 1963175 1962536 1961861 1961681 1961937 1962581 1963297 1964111 1965015 1965974 1966854 1965737 1962133 1959767 1958620 1958023 1957826 1957380 1956748 1956715 1957139 1957965 1958781 1959598 1960713 1961760 1962886 1962910 1959935 1957700 1956741 1956422 1956591 1956409 1956016 1956077 1956585 1957355 1958346 1959316 1960387 1961496 1962619 1963534 1961563 1959348 1958530 1958544 1959070 1959210 1958943 1959099 1959649 1960499 1961481 1962566 1963653 1964834 1965970 1966548 1964250 1962171 1961477 1961373 1961598 1961636 1961314 1961461 1961885 1962664 1963542 1964493 1965460 1966578 1967684 1967417 1964257 1961896 1960800 1960200 1960071 1959703 1959174 1959022 1959495 1960142 1960910 1961900 1962849 1963861 1964945 1964509 1961415 1959201 1958211 1957690 1957669 1957353 1957056 1957035 1957659 1958404 1959362 1960346 1961440 1962649 1963787 1963840 1961181 1959062 1958414 1958145 1958298 1958259 1958031 1958262 1958797 1959654 1960697 1961639 1962762 1963851 1965127 1965791 1963635 1961914 1961381 1961472 1961937 1962114 1962064 1962262 1962855 1963806 1964830 1965855 1966912 1968058 1969286 1968997 1966573 1965230 1964720 1964832 1965208 1965073 1964984 1965302 1965953 1966768 1967636 1968709 1969654 1970824 1971832 1970373 1967749 1966297 1965490 1965190 1965094 1964838 1964542 1964903 1965359 1966196 1966990 1967834 1968835 1969938 1970951 1970948 1968284 1966381 1965400 1965019 1964837 1964813 1964602 1964651 1965191 1966020 1966935 1967945 1968938 1970029 1971207 1972371 1972663 1970466 1968998 1968525 1968597 1968851 1968928 1968972 1969363 1970027 1970867 1971897 1972876 1974093 1975051 1976273 1977518 1977976 1976344 1975467 1975445 1975904 1976477 1976740 1977018 1977471 1978209 1979150 1980129 1981234 1982204 1983262 1984381 1985256 1984167 1982540 1982077 1982104 1982516 1982929 1983019 1983187 1983626 1984531 1985405 1986327 1987259 1988292 1989336 1990342 1990342 1988346 1987223 1986772 1986750 1987098 1987113 1987033 1987141 1987627 1988328 1989092 1989912 1990728 1991525 1992530 1993310 1992201 1990125 1989274 1989082 1989281 1989489 1989400 1989319 1989665 1990153 1990874 1991718 1992445 1993234 1994027 1994881 1995168 1993234 1991568 1991030 1991048 1991272 1991270 1990963 1990889 1991027 1991620 1992166 1992875 1993526 1994198 1995020 1995421 1993657 1991851 1991142 1991109 1991403 1991457 1991206 1991151 1991513 1992029 1992677 1993362 1994086 1994849 1995569 1995185 1992533 1990300 1989404 1988878 1988702 1988237 1987572 1987295 1987401 1987757 1988279 1988767 1989348 1989979 1990672 1989453 1986154 1983989 1982846 1982040 1981765 1981059 1980325 1979983 1980191 1980555 1981041 1981660 1982281 1982954 1983679 1982642 1979424 1977188 1976029 1975662 1975352 1974732 1974170 1974180 1974365 1975004 1975549 1976248 1976999 1977790 1978532 1977529 1974516 1972891 1972217 1972200 1972159 1971598 1971176 1971286 1971710 1972348 1973051 1973865 1974699 1975533 1976264 1974576 1971839 1970506 1969981 1970030 1969906 1969464 1969121 1969288 1969752 1970429 1971266 1971991 1972917 1973786 1973993 1971208 1968649 1967245 1966576 1966423 1965971 1965407 1965142 1965404 1965851 1966512 1967304 1968141 1969038 1969987 1970597 1968098 1965388 1964026 1963342 1963092 1962939 1962389 1962197 1962437 1963048 1963831 1964783 1965631 1966605 1967673 1968691 1967676 1965042 1963633 1963232 1963030 1963162 1962936 1962747 1963090 1963687 1964471 1965426 1966363 1967322 1968421 1969545 1969420 1967173 1965783 1965417 1965522 1965885 1965816 1965769 1966133 1966758 1967604 1968606 1969566 1970575 1971655 1972789 1972685 1970389 1968998 1968560 1968627 1968870 1968861 1968712 1969077 1969679 1970553 1971456 1972475 1973463 1974483 1975638 1974819 1972126 1970406 1969546 1969180 1969078 1968750 1968561 1968666 1969135 1969894 1970755 1971649 1972531 1973606 1974529 1973527 1970739 1969102 1968010 1967509 1967434 1966994 1966735 1966797 1967259 1967905 1968757 1969709 1970630 1971687 1972652 1972847 1970333 1968190 1967301 1966928 1966880 1966772 1966527 1966547 1966983 1967720 1968611 1969508 1970426 1971459 1972483 1973440 1971937 1969623 1968687 1968531 1968735 1968899 1968765 1968757 1969199 1969844 1970750 1971609 1972556 1973624 1974519 1975540 1974561 1972364 1971279 1971064 1971344 1971575 1971432 1971371 1971765 1972478 1973447 1974306 1975130 1976253 1977231 1978248 1977035 1974434 1972898 1972398 1972207 1972218 1972028 1971823 1972086 1972528 1973272 1974145 1974988 1975939 1976965 1977850 1977098 1974424 1972688 1971830 1971656 1971549 1971420 1971057 1971089 1971580 1972247 1973120 1973950 1974807 1975783 1976802 1977448 1975190 1972993 1972012 1971756 1971872 1971889 1971575 1971418 1971818 1972388 1973197 1974072 1974896 1975807 1976879 1977901 1977573 1975247 1973845 1973612 1973853 1974277 1974116 1973992 1974290 1974845 1975669 1976550 1977406 1978368 1979469 1980463 1980924 1978950 1977209 1976800 1976954 1977523 1977575 1977458 1977590 1978102 1978773 1979669 1980583 1981468 1982521 1983388 1983447 1980970 1979041 1978410 1978418 1978709 1978673 1978331 1978373 1978884 1979483 1980304 1981189 1982038 1982953 1983604 1981436 1978409 1976645 1975844 1975425 1975226 1974705 1974219 1974178 1974713 1975325 1975931 1976788 1977620 1978477 1977899 1974368 1971477 1970027 1969154 1968816 1968348 1967654 1967352 1967547 1968087 1968820 1969529 1970367 1971234 1972113 1970823 1967166 1964836 1963660 1963159 1963090 1962450 1961894 1961865 1962267 1962960 1963849 1964680 1965586 1966597 1967613 1966523 1963314 1961633 1961167 1961272 1961378 1961168 1960993 1961151 1961879 1962795 1963824 1964818 1965901 1967062 1967689 1965685 1963780 1963214 1963632 1964301 1964443 1964547 1964783 1965548 1966434 1967548 1968677 1969938 1971090 1972158 1971102 1969342 1969050 1969561 1970503 1970973 1971136 1971572 1972311 1973220 1974352 1975507 1976721 1977852 1978722 1977386 1975963 1975905 1976448 1977344 1977810 1978070 1978554 1979354 1980385 1981528 1982682 1983759 1984845 1984624 1982508 1981218 1981010 1981323 1981723 1981804 1981811 1982155 1982809 1983628 1984563 1985459 1986582 1987447 1986455 1983943 1982761 1982349 1982399 1982500 1982368 1982273 1982512 1983067 1983756 1984551 1985427 1986263 1987076 1986657 1984287 1982882 1982466 1982557 1982651 1982643 1982348 1982556 1983147 1983749 1984495 1985245 1986177 1987010 1987649 1985922 1984059 1983381 1983586 1983883 1984015 1983803 1983726 1984264 1984849 1985548 1986409 1987247 1988177 1988974 1988377 1986155 1984858 1984691 1985079 1985339 1985019 1984964 1985130 1985788 1986465 1987273 1988129 1988984 1989826 1989478 1986616 1984473 1983427 1983055 1982916 1982443 1981977 1981760 1981946 1982461 1983128 1983803 1984544 1985196 1985755 1983041 1979883 1978140 1977214 1976841 1976380 1975541 1975203 1975276 1975738 1976345 1977057 1977757 1978475 1979320 1978081 1974664 1972514 1971566 1971287 1971172 1970562 1969998 1969978 1970286 1970965 1971599 1972412 1973271 1974169 1975005 1973546 1970646 1968985 1968544 1968683 1968637 1968139 1967793 1967932 1968530 1969194 1969968 1970762 1971756 1972655 1973512 1972053 1969525 1968481 1968373 1968700 1968766 1968417 1968364 1968616 1969318 1970108 1971004 1971943 1972850 1973878 1973945 1971427 1969561 1969017 1969254 1969571 1969393 1969130 1969291 1969831 1970673 1971576 1972513 1973411 1974482 1975275 1973423 1970462 1969058 1968396 1968198 1968079 1967666 1967430 1967642 1968227 1968958 1969821 1970690 1971610 1972616 1973353 1971173 1968348 1967045 1966492 1966391 1966218 1965858 1965724 1966008 1966721 1967530 1968415 1969400 1970458 1971459 1972587 1971422 1968830 1967603 1967340 1967407 1967573 1967395 1967313 1967694 1968355 1969256 1970102 1971099 1972152 1973189 1974533 1973818 1971486 1970385 1970235 1970703 1971059 1970885 1970863 1971231 1971859 1972824 1973792 1974677 1975624 1976662 1977713 1976823 1974322 1973101 1972930 1973247 1973592 1973414 1973158 1973547 1974102 1975018 1975866 1976847 1977741 1978725 1979349 1976792 1973836 1972516 1971795 1971465 1971343 1970688 1970283 1970362 1970894 1971531 1972194 1972990 1973823