2094967 2093910 2093600 2093462 2093089 2092481 2091402 2089658 2088144 2085449 2083076 2080585 2077884 2073752 2068424 2062891 2057814 2051931 2047637 2043246 2039252 2035691 2033440 2032521 2033080 2035109 2035917 2036835 2037346 2037809 2037075 2033161 2026607 2020067 2015122 2011160 2008166 2005975 2003860 2001741 2000063 1998473 1997508 1996900 1996481 1996436 1996729 1997293 1997409 1994865 1989383 1984085 1980036 1977126 1974430 1972758 1972549 1972695 1973271 1974049 1975129 1976874 1978610 1980641 1982891 1984808 1985819 1984810 1982105 1979698 1978036 1977208 1976909 1977046 1977250 1977388 1977670 1978204 1979048 1980269 1981673 1983190 1985044 1986791 1987300 1985855 1983517 1981636 1980512 1979798 1979597 1979833 1980403 1980835 1981273 1982054 1983016 1984277 1985857 1987423 1989239 1990982 1991507 1989965 1986674 1984551 1983222 1982700 1982568 1982867 1983513 1984253 1985027 1986038 1987468 1988950 1990756 1992738 1994597 1996685 1998382 1998456 1996520 1994769 1994106 1994009 1994519 1995441 1996659 1997946 1999213 2000485 2001987 2003802 2005506 2007626 2009709 2011715 2013741 2015574 2016199 2015661 2014722 2014825 2015406 2016244 2017470 2018671 2019915 2020958 2022124 2023526 2025051 2026604 2028189 2030074 2031665 2033260 2034290 2034000 2032898 2032404 2032794 2033255 2034102 2035264 2036200 2037200 2038207 2039320 2040687 2041917 2043510 2044882 2046328 2047900 2049165 2049919 2048900 2047274 2046682 2046501 2046805 2047166 2047916 2048612 2049386 2050042 2050867 2051795 2052983 2054106 2055223 2056442 2057722 2059041 2060280 2060286 2058417 2056790 2055895 2055664 2055649 2055754 2056315 2056881 2057237 2057662 2058318 2059135 2059967 2060911 2062076 2063044 2064170 2065247 2065567 2064348 2061856 2060073 2058967 2058597 2058241 2058358 2058540 2058597 2058908 2059192 2059452 2059797 2060317 2060982 2061641 2062645 2063458 2064110 2063238 2060961 2058790 2057609 2056775 2056717 2056786 2057017 2056720 2056769 2056987 2057405 2057894 2058401 2059245 2059762 2060561 2061561 2060816 2058423 2054778 2052215 2050485 2049207 2048461 2048059 2047532 2047056 2046779 2046460 2046533 2046958 2047384 2047868 2048465 2049219 2049804 2049412 2045860 2041285 2038131 2035825 2034198 2032769 2031734 2030884 2030018 2029277 2028976 2029084 2029286 2030029 2030618 2031520 2032386 2033401 2033638 2031009 2026011 2022495 2020336 2018453 2016991 2015906 2015435 2014733 2014418 2014360 2014363 2014829 2015637 2016416 2017472 2018589 2019886 2020972 2020465 2016715 2012659 2010187 2008690 2007437 2006885 2006478 2006211 2005980 2005866 2006111 2006426 2007202 2008275 2009499 2010754 2012143 2013571 2014741 2013655 2009562 2006475 2005113 2004291 2003546 2003544 2003771 2003832 2004026 2004214 2004952 2005869 2007026 2008358 2009748 2011277 2012788 2014553 2014675 2012089 2009343 2008186 2007937 2008100 2008475 2009029 2009563 2009894 2010442 2011214 2012253 2013471 2014920 2016319 2017824 2019449 2021010 2021431 2018353 2015405 2014105 2013630 2013223 2013255 2013827 2014136 2014490 2014881 2015381 2016479 2017634 2018709 2020268 2021883 2023357 2024928 2026583 2026703 2023521 2020688 2019627 2019176 2018647 2018778 2018962 2019521 2019925 2020271 2021000 2021755 2022937 2024118 2025800 2027171 2028799 2030471 2032038 2033401 2032212 2029158 2027597 2027016 2026732 2026741 2027024 2027445 2027856 2028321 2028967 2029683 2030661 2031830 2033217 2034592 2036040 2037599 2039128 2040810 2041421 2039244 2037009 2036173 2036039 2036118 2036358 2037096 2037551 2038034 2038570 2039107 2040050 2041097 2042363 2043667 2045044 2046535 2047773 2049200 2049214 2046671 2044623 2043990 2043935 2043898 2044436 2044882 2045229 2045358 2045894 2046442 2047187 2047963 2048985 2050138 2051254 2052507 2053807 2054722 2053365 2049610 2046949 2045671 2044950 2044187 2043865 2043688 2043566 2043322 2043199 2043379 2043870 2044665 2045327 2046362 2047479 2048592 2049726 2051075 2051496 2048981 2044806 2042220 2041115 2040084 2039372 2038836 2038738 2038551 2038312 2038258 2038397 2039072 2039931 2040719 2041897 2042976 2044222 2045500 2046692 2045961 2042462 2039406 2037870 2037015 2036475 2036245 2036318 2036313 2036339 2036388 2036743 2037328 2038094 2039153 2040325 2041485 2042786 2044185 2045454 2045923 2044095 2040996 2039352 2038662 2038538 2038647 2038746 2039274 2039357 2039536 2039782 2040246 2040985 2041874 2042642 2043686 2044660 2045885 2046772 2045520 2040975 2037219 2035040 2033823 2032877 2032257 2032013 2031665 2031340 2030937 2030846 2031113 2031634 2032283 2033170 2034185 2035072 2036299 2037453 2038031 2034762 2029368 2025902 2023951 2022579 2021469 2020742 2020121 2019622 2018806 2018006 2017810 2017889 2018052 2018546 2019342 2020212 2021081 2022078 2023196 2023766 2019780 2013907 2010248 2008514 2007038 2005952 2005485 2005147 2004636 2004276 2004091 2004337 2004895 2005842 2006993 2008120 2009567 2011044 2012626 2014255 2015328 2013230 2008836 2006325 2005399 2005234 2005261 2005648 2006195 2006460 2006583 2006889 2007525 2008427 2009663 2010865 2012355 2013890 2015604 2017165 2017697 2014591 2011118 2009628 2009361 2009344 2009681 2010315 2010800 2010955 2011269 2011762 2012513 2013484 2014804 2016272 2017562 2018986 2020537 2022086 2021171 2016633 2013040 2011104 2009890 2009089 2008675 2008516 2008618 2008395 2008049 2008196 2008693 2009407 2010479 2011475 2012589 2013853 2015182 2016611 2016001 2011121 2006818 2004471 2002905 2001699 2000677 2000238 2000198 1999674 1999472 1999456 1999878 2000502 2001483 2002744 2003820 2005098 2006553 2007912 2007046 2002089 1998002 1995966 1994670 1993708 1993196 1993195 1993253 1992978 1992946 1993146 1993872 1994791 1995946 1997290 1998686 2000084 2001774 2003219 2002462 1998133 1995232 1994137 1993803 1993784 1994282 1994836 1995066 1995014 1995571 1996354 1997377 1998679 2000038 2001670 2003223 2004891 2006605 2007439 2004077 2000336 1998577 1998100 1997735 1997515 1997857 1998397 1998601 1998728 1999424 2000472 2001761 2003086 2004503 2006081 2007868 2009611 2011474 2011994 2008760 2005270 2003752 2002952 2002410 2002012 2002445 2003155 2003664 2004412 2005054 2006274 2007666 2009238 2010877 2012600 2014306 2016072 2017981 2019802 2019537 2016250 2013940 2013520 2013460 2013462 2013802 2014642 2015521 2016209 2016966 2017875 2018985 2020158 2021810 2023163 2024686 2026393 2028017 2029608 2029772 2026936 2024719 2024507 2024787 2025008 2025813 2026715 2027320 2027783 2028544 2029414 2030562 2031817 2033256 2034778 2036009 2037511 2039201 2040121 2037903 2034691 2033518 2033461 2033460 2033666 2034317 2034921 2035141 2035412 2035978 2036839 2037794 2038917 2040093 2041353 2042638 2043976 2045317 2045127 2041434 2038003 2036449 2035516 2034698 2034185 2034399 2034484 2034337 2034242 2034617 2034982 2035677 2036532 2037523 2038571 2039824 2041034 2042339 2042994 2040179 2035574 2033147 2031723 2030571 2029728 2029429 2029549 2029611 2029278 2029145 2029592 2030297 2031032 2032079 2033199 2034283 2035421 2036752 2037834 2035420 2030034 2027840 2026845 2026309 2025769 2025824 2026000 2026046 2025964 2026401 2026730 2027564 2028664 2029844 2030975 2032307 2033701 2035072 2035002 2031165 2027499 2025969 2025255 2024940 2024821 2025191 2025526 2025677 2025811 2026361 2027049 2028139 2029204 2030500 2031904 2033265 2034734 2035731 2033251 2029212 2027330 2026657 2026594 2026723 2027427 2027854 2028397 2028526 2029437 2030189 2031293 2032452 2033847 2035305 2036624 2038108 2039603 2037817 2034110 2031923 2031290 2031242 2031255 2031733 2032198 2032606 2032889 2033451 2034193 2035204 2036264 2037628 2038951 2040227 2041656 2042803 2040759 2036797 2034855 2034276 2033814 2033842 2034193 2034612 2034921 2035082 2035718 2036483 2037571 2038536 2039680 2041001 2042532 2043878 2044940 2042471 2038959 2037373 2037159 2036929 2037341 2037824 2038456 2038695 2038937 2039552 2040444 2041414 2042750 2043951 2045359 2046779 2048000 2047503 2042990 2041123 2040657 2040760 2040959 2041591 2042140 2042443 2042669 2043201 2043968 2044992 2046164 2047514 2048779 2050277 2051605 2051413 2047830 2044822 2043646 2043096 2042838 2042817 2043227 2043532 2043569 2043518 2044203 2044997 2045984 2047128 2048316 2049614 2050967 2052223 2052664 2049144 2045317 2043393 2042532 2041667 2040928 2040965 2041164 2041315 2041212 2041533 2042029 2042930 2043936 2045114 2046415 2047688 2048873 2050243 2051003 2047900 2043492 2041227 2040259 2039352 2038511 2038451 2038716 2038778 2038631 2038970 2039576 2040207 2041306 2042447 2043711 2044874 2046267 2047732 2048727 2046806 2042433 2039852 2038747 2038057 2037391 2037333 2037568 2037715 2037792 2037889 2038270 2039144 2040065 2041211 2042366 2043638 2044939 2046390 2047388 2045640 2041244 2038579 2037543 2036837 2036301 2036298 2036539 2036726 2036712 2037007 2037549 2038334 2039389 2040519 2041831 2043167 2044720 2046451 2047525 2045906 2042046 2039862 2039266 2039212 2039320 2039818 2040323 2040524 2040655 2041144 2041680 2042467 2043638 2044794 2046124 2047400 2048863 2050089 2049180 2045565 2043153 2042525 2042258 2042617 2042890 2043556 2043623 2043649 2044054 2044611 2045362 2046448 2047578 2048633 2049878 2051149 2052113 2050091 2045897 2043172 2042034 2041310 2040684 2040765 2041048 2040897 2040763 2040837 2041182 2041697 2042677 2043575 2044794 2046061 2047103 2048396 2047939 2043673 2039894 2037984 2037001 2036093 2035523 2035480 2035485 2035246 2035161 2035256 2035791 2036409 2037266 2038377 2039651 2040774 2042013 2043412 2042703 2038341 2034454 2032601 2031585 2030783 2030373 2030387 2030467 2030460 2030433 2030736 2031318 2032018 2033110 2034346 2035572 2036947 2038309 2039633 2039256 2035377 2031638 2029925 2028960 2028555 2028316 2028614 2028862 2029071 2029204 2029586 2030236 2031234 2032283 2033520 2034972 2036251 2037879 2039262 2039249 2035890 2032417 2030824 2030410 2030001 2030190 2030624 2031037 2031270 2031750 2032294 2033198 2034100 2035263 2036653 2037976 2039542 2041051 2042460 2041626 2037883 2035195 2034362 2034275 2034346 2034766 2035394 2035789 2036060 2036567 2037279 2038276 2039254 2040618 2041965 2043578 2044929 2046569 2046325 2043227 2040731 2040024 2040240 2040665 2041346 2042175 2042714 2043197 2043588 2044138 2045275 2046373 2047612 2048870 2050340 2051715 2052515 2050018 2046278 2044370 2043656 2043384 2043299 2043783 2044209 2044328 2044455 2044834 2045450 2046335 2047090 2048417 2049392 2050642 2051910 2051724 2047805 2043514 2041171 2039886 2038745 2037918 2037792 2037793 2037393 2037259 2037455 2037760 2038255 2039180 2040104 2041075 2042238 2043495 2043650 2040086 2035399 2032891 2031187 2029675 2028478 2028151 2027973 2027658 2027312 2027208 2027361 2027913 2028640 2029514 2030794 2031659 2033008 2033909 2031433 2026156 2022413 2020143 2018397 2016826 2015959 2015759 2015237 2014521 2014025 2013702 2014018 2014531 2015329 2016398 2017488 2018711 2020034 2021267 2019081 2013935 2010698 2009138 2008400 2007565 2007582 2007895 2007919 2007782 2007912 2008651 2009691 2010887 2012350 2013923 2015508 2017099 2018763 2019833 2017100 2013481 2012124 2011719 2011641 2012005 2012698 2013315 2013585 2013841 2014596 2015699 2017121 2018620 2020284 2021834 2023455 2025146 2026621 2025561 2021268 2018236 2017063 2016294 2015543 2015432 2016053 2016330 2016618 2017057 2017743 2018828 2020118 2021521 2023070 2024608 2026138 2027665 2029350 2030229 2027521 2023595 2021599 2020722 2019792 2019227 2019396 2019828 2020226 2020607 2021016 2021832 2022876 2024218 2025696 2027192 2028678 2030278 2031961 2033723 2035343 2034503 2031234 2029255 2028695 2028567 2028300 2028649 2029327 2030043 2030563 2031204 2032120 2033418 2034863 2036467 2038100 2039904 2041593 2043389 2044994 2046750 2047269 2044786 2042562 2042178 2042376 2042743 2043521 2044440 2045131 2045693 2046218 2047121 2048292 2049439 2051023 2052381 2053891 2055418 2056999 2058632 2059797 2058666 2056209 2055299 2055533 2056273 2057022 2057974 2058949 2059248 2059756 2060575 2061528 2062498 2063802 2064791 2066096 2067289 2068651 2069913 2070448 2068002 2064555 2062647 2061741 2060978 2060313 2059933 2059832 2059280 2058819 2058615 2058751 2059091 2059676 2060320 2061071 2061897 2062798 2063746 2064793 2064999 2061108 2056013 2052918 2051303 2049885 2048647 2047950 2047553 2047180 2046549 2046106 2045982 2046201 2046693 2047499 2048231 2049239 2050082 2051058 2052157 2052650 2049235 2044063 2040877 2039371 2038432 2037568 2037064 2036851 2036561 2036138 2035996 2036065 2036499 2037023 2037979 2038937 2040125 2041167 2042544 2043752 2044694 2041728 2037168 2034711 2033825 2033339 2033366 2033559 2033772 2033765 2033574 2033643 2034130 2034954 2035690 2036804 2037986 2039070 2040395 2041653 2041254 2037229 2033225 2031494 2030836 2030428 2030627 2030936 2031089 2030743 2030677 2030940 2031499 2032148 2033028 2034109 2035147 2036396 2037650 2038924 2037171 2031879 2028119 2026186 2025100 2024148 2023630 2023546 2023377 2023098 2022811 2023122 2023345 2024007 2024847 2025996 2027096 2028293 2029520 2031031 2030591 2025818 2021321 2018742 2017368 2016414 2015583 2015357 2015369 2014939 2014800 2014780 2015111 2015682 2016529 2017590 2018733 2019907 2021109 2022543 2022269 2017582 2013227 2010902 2009691 2008788 2008267 2008100 2008166 2007917 2007952 2008028 2008542 2009285 2010307 2011367 2012752 2014097 2015584 2016977 2015877 2011409 2008008 2006857 2006212 2005799 2005843 2006227 2006176 2005715 2005839 2006349 2007046 2007981 2009089 2010381 2011551 2012928 2014196 2011802 2006903 2003918 2002416 2001498 2000828 2000785 2000671 2000243 1999809 1999782 2000059 2000740 2001555 2002607 2003848 2004960 2006236 2007655 2007725 2003146 1998145 1995279 1993639 1991884 1990471 1990082 1989895 1989631 1989239 1989079 1989436 1990117 1991166 1992317 1993693 1994953 1996827 1998509 1999638 1996953 1991775 1988561 1987082 1985688 1984451 1984034 1984228 1984320 1984286 1984331 1984924 1985726 1986912 1988275 1989710 1991349 1992949 1994614 1996111 1997756 1995571 1991001 1988208 1986940 1986297 1985541 1985619 1986201 1986421 1986454 1986903 1987561 1988677 1989943 1991387 1993067 1994693 1996465 1998244 2000179 2000734 1997282 1993699 1992099 1991799 1991441 1991531 1991997 1992749 1993002 1993423 1994143 1995129 1996448 1998070 1999653 2001443 2003112 2004939 2006770 2008433 2006604 2002880 2000830 2000299 2000469 2000493 2001220 2002172 2002729 2003148 2003946 2004918 2006270 2007759 2009370 2011247 2012986 2014788 2016575 2018347 2018149 2014843 2012773 2012539 2012791 2013453 2014551 2015541 2016248 2016624 2017471 2018391 2019682 2021074 2022558 2024170 2025821 2027309 2029064 2030007 2026919 2023753 2022710 2022537 2022541 2022902 2023479 2024127 2024422 2024792 2025546 2026375 2027522 2028854 2030065 2031448 2032891 2034312 2036075 2035604 2031616 2028141 2026595 2025809 2025367 2025031 2025383 2025526 2025781 2025861 2026265 2026919 2027808 2028878 2030056 2031362 2032772 2034008 2035620 2036118 2032550 2028307 2025922 2025064 2024439 2023978 2024021 2024367 2024446 2024543 2024656 2025290 2026083 2027099 2028217 2029408 2030981 2032243 2033685 2033838 2029890 2025811 2023938 2023230 2022511 2022449 2022662 2022957 2023020 2023107 2023456 2024048 2024892 2025888 2027157 2028370 2029781 2031123 2032542 2031082 2026565 2023179 2021699 2021204 2020735 2020741 2021184 2021372 2021550 2021804 2022395 2023089 2024283 2025459 2026888 2028357 2029799 2031490 2031569 2027975 2024526 2023120 2022932 2022982 2023329 2023878 2024355 2024426 2024804 2025371 2026287 2027380 2028705 2030135 2031568 2032987 2033878 2031264 2027302 2025399 2024993 2024860 2025211 2025820 2026314 2026337 2026527 2027038 2027689 2028718 2030055 2031182 2032579 2033881 2035226 2033392 2028595 2025433 2023788 2022908 2022278 2022059 2022286 2022267 2021908 2021866 2022235 2022952 2023796 2024902 2025970 2027187 2028509 2029331 2026486 2021274 2017955 2016278 2014997 2013860 2013545 2013564 2013677 2013134 2013198 2013696 2014506 2015468 2016779 2017902 2019401 2020748 2022215 2021951 2017519 2013351 2011404 2010209 2009255 2008603 2008873 2009000 2009092 2009340 2009645 2010617 2011703 2012949 2014329 2015829 2017360 2018942 2020442 2019490 2015198 2012238 2010998 2010383 2010011 2010105 2010581 2011081 2011396 2011785 2012600 2013532 2014932 2016424 2017888 2019541 2021189 2023033 2024633 2023278 2018751 2017034 2016819 2016695 2016963 2017514 2018253 2018800 2019061 2020019 2020892 2022123 2023553 2025182 2026715 2028307 2030035 2031923 2031836 2028772 2026685 2026403 2026710 2027271 2028290 2029222 2029881 2030321 2030912 2032037 2033267 2034656 2036130 2037648 2039154 2040833 2042443 2042560 2039346 2036621 2035843 2035836 2035846 2036254 2036911 2037545 2037806 2038099 2038962 2039863 2040919 2042194 2043517 2044792 2046230 2047755 2049086 2048088 2044284 2041554 2040592 2040172 2039747 2039446 2039647 2039882 2040028 2040266 2040734 2041435 2042372 2043391 2044526 2045935 2047132 2048561 2049830 2049325 2045337 2041949 2040508 2039805 2039292 2039051 2039258 2039410 2039404 2039407 2039688 2040310 2041007 2042009 2043144 2044248 2045575 2046916 2048274 2048658 2045664 2041372 2039541 2038605 2038205 2037792 2037915 2038126 2038325 2038247 2038550 2039210 2040064 2040858 2042120 2043186 2044533 2045715 2047110 2046752 2042814 2039425 2038011 2037526 2037311 2037260 2037724 2038065 2038313 2038547 2039070 2039592 2040511 2041671 2042845 2044101 2045433 2046758 2048236 2046978 2042997 2040558 2039579 2039481 2039484 2039950 2040446 2040888 2041191 2041541 2042196 2043086 2044167 2045421 2046663 2048034 2049515 2051109 2051380 2048537 2045664 2044839 2044892 2045356 2046169 2046988 2047542 2048056 2048470 2049128 2050215 2051365 2052604 2053984 2055319 2056710 2058105 2057543 2054166 2051916 2051191 2051088 2051549 2051966 2052606 2053008 2053298 2053680 2054252 2055050 2056096 2057048 2058416 2059524 2060744 2061938 2060767 2056547 2053700 2052515 2051915 2051601 2051383 2051641 2051824 2051861 2051872 2052310 2052828 2053683 2054467 2055579 2056578 2057859 2059078 2059750 2056973 2052371 2049727 2048483 2047739 2047202 2047255 2047417 2047568 2047570 2047700 2048046 2048676 2049448 2050380 2051388 2052550 2053678 2055019 2055511 2052435 2048083 2045876 2044804 2044112 2043610 2043619 2043682 2043752 2043765 2043926 2044368 2044857 2045894 2046905 2048046 2049295 2050716 2052046 2052350 2049329 2045674 2043945 2043444 2043142 2043196 2043441 2043719 2043882 2044068 2044363 2044979 2045840 2046820 2047942 2049213 2050583 2051845 2051770 2048426 2045325 2044028 2043785 2043803 2044266 2044669 2044850 2045020 2045412 2045875 2046692 2047583 2048799 2050007 2051145 2052505 2053569 2052066 2047739 2044830 2043446 2042752 2042279 2042238 2042378 2042323 2042285 2042162 2042532 2043115 2043910 2044820 2046015 2047095 2048354 2049659 2048812 2044086 2040238 2038331 2037150 2036156 2035657 2035481 2035567 2035386 2035280 2035341 2035722 2036469 2037329 2038435 2039615 2040669 2042048 2043313 2041968 2037038 2033368 2031701 2030597 2029567 2029330 2029257 2029459 2029231 2029249 2029570 2030095 2030903 2031983 2033159 2034476 2035908 2037353 2038370 2036408 2031904 2029425 2028541 2028067 2027798 2028138 2028573 2028789 2028861 2029228 2029854 2030693 2031753 2033039 2034298 2035762 2037315 2038546 2036498 2032802 2031012 2030625 2030726 2030929 2031531 2032192 2032339 2032563 2033107 2033934 2034899 2036200 2037469 2038706 2040312 2041721 2041982 2038230 2034676 2033047 2032383 2031824 2031645 2031925 2032247 2032305 2032487 2032818 2033475 2034341 2035387 2036704 2038146 2039344 2040928 2042232 2041171 2036768 2033523 2032134 2031312 2030539 2030332 2030465 2030860 2030905 2031040 2031613 2032153 2033156 2034166 2035522 2036786 2038229 2039791 2041258 2041030 2037149 2033693 2032265 2031570 2030935 2030779 2031031 2031434 2031606 2031938 2032510 2033138 2034026 2035105 2036565 2037936 2039331 2040938 2042463 2042901 2039713 2036215 2034798 2034472 2034364 2034780 2035289 2035878 2036215 2036708 2037359 2038115 2039317 2040577 2041740 2043312 2044740 2046299 2047441 2045823 2042685 2041017 2040716 2040951 2041369 2042138 2042695 2043063 2043397 2044097 2044739 2045769 2046922 2048178 2049377 2050756 2052311 2053451 2051883 2047833 2045488 2044500 2044028 2043847 2044000 2044374 2044675 2044647 2045107 2045560 2046355 2047216 2048352 2049587 2050905 2052222 2053645 2054616 2052685 2048275 2045600 2044450 2043764 2043302 2043270 2043516 2043707 2043801 2044108 2044475 2045234 2046233 2047219 2048524 2049805 2051090 2052424 2053681 2052564 2048345 2045186 2043753 2043268 2042749 2042693 2042853 2043178 2043400 2043507 2043867 2044561 2045370 2046419 2047679 2048918 2050171 2051562 2053007 2052771 2048896 2045452 2043909 2043490 2043189 2043399 2043854 2044237 2044548 2044832 2045303 2046126 2047068 2048119 2049394 2050797 2052230 2053595 2054802 2053922 2050386 2048461 2047933 2048017 2048449 2049195 2049729 2050196 2050541 2051081 2051824 2052740 2053996 2055196 2056413 2057761 2058966 2059933 2057743 2053880 2051875 2051201 2050880 2050879 2051066 2051545 2051726 2051707 2052073 2052672 2053379 2054356 2055382 2056474 2057770 2058963 2060233 2059983 2055927 2052378 2050579 2049646 2049051 2048729 2048960 2049117 2049218 2049353 2049587 2050053 2050748 2051729 2052865 2054168 2055557 2056811 2058141 2057542 2053722 2050710 2049369 2048942 2048625 2048648 2048914 2049289 2049590 2049749 2050335 2051119 2051962 2053055 2054201 2055371 2056815 2058096 2058868 2056459 2052522 2050720 2049977 2049840 2049855 2050250 2050776 2051097 2051438 2051949 2052556 2053461 2054491 2055751 2056900 2058202 2059675 2060673 2059164 2055553 2053773 2053368 2053378 2053598 2054295 2054952 2055014 2055237 2055607 2056400 2057313 2058289 2059368 2060548 2061608 2063013 2063019 2059363 2055922 2054479 2053875 2053664 2053914 2054055 2054196 2054148 2054193 2054624 2055082 2055867 2056776 2058045 2059290 2060391 2061685 2060400 2055797 2052266 2050531 2049599 2048759 2048374 2048472 2048551 2048391 2048461 2048759 2049418 2050282 2051307 2052385 2053542 2054902 2056210 2057122 2054494 2049867 2047065 2045929 2045143 2044512 2044531 2044801 2044939 2044975 2045307 2045679 2046440 2047399 2048497 2049834 2051055 2052380 2053804 2055079 2053656 2049175 2046410 2045382 2044870 2044683 2044801 2045128 2045458 2045563 2045910 2046470 2047347 2048364 2049485 2050709 2052262 2053566 2055008 2056341 2054749 2050615 2048225 2047403 2047312 2047337 2047591 2048248 2048608 2049002 2049394 2050123 2051136 2052323 2053622 2054962 2056496 2058116 2059701 2061165 2060666 2057241 2054945 2054306 2054382 2054794 2055490 2056171 2056720 2057289 2057738 2058556 2059427 2060629 2061801 2063283 2064772 2066093 2067604 2068043 2065342 2062127 2061367 2061515 2061744 2062416 2063022 2063448 2063779 2064058 2064669 2065477 2066419 2067606 2068728 2069797 2071148 2072322 2072307 2068625 2065049 2063371 2062487 2062070 2061814 2061955 2062234 2062095 2062207 2062336 2062870 2063577 2064376 2065485 2066507 2067743 2068883 2070080 2070008 2066357 2062492 2060509 2059603 2059074 2058733 2058751 2058978 2058968 2058873 2059020 2059441 2060141 2060818 2061754 2062834 2063906 2065305 2066410 2066673 2063667 2059309 2057198 2056093 2055511 2055126 2055359 2055441 2055645 2055587 2055882 2056529 2057122 2058024 2059101 2060331 2061587 2062722 2064110 2064494 2061675 2058172 2056544 2056199 2056045 2056510 2057007 2057572 2057901 2058488 2058925 2059755 2060689 2061815 2062940 2064186 2065384 2066869 2066637 2063538 2060437 2059329 2058936 2058906 2059124 2059637 2060083 2059989 2060349 2060940 2061539 2062233 2063309 2064420 2065639 2066770 2067901 2066591 2062269 2058891 2057387 2056478 2056042 2055777 2055742 2055806 2055800 2055874 2055922 2056337 2057200 2057919 2059008 2060067 2061280 2062375 2062058 2057537 2053438 2051208 2049816 2048867 2048496 2048286 2048261 2048056 2048019 2048037 2048423 2048988 2049937 2050836 2051972 2053044 2054210 2055195 2052902 2047907 2044858 2043177 2042128 2041400 2041289 2041253 2041380 2041165 2041229 2041439 2042133 2042969 2044036 2045205 2046323 2047624 2049190 2049336 2045835 2041876 2040190 2039551 2039297 2039496 2039886 2040241 2040276 2040359 2040788 2041745 2042695 2043806 2045018 2046493 2047900 2048837 2047032 2042867 2040365 2039411 2039211 2039158 2039616 2039993 2040047 2039869 2040212 2040639 2041456 2042459 2043595 2044674 2046082 2047350 2048175 2045329 2040567 2037799 2036381 2035455 2034798 2034571 2034573 2034513 2034231 2034163 2034510 2035092 2035811 2036955 2038017 2039189 2040540 2041892 2041521 2036979 2032642 2030491 2029185 2028254 2027603 2027549 2027771 2027706 2027774 2028150 2028468 2029458 2030486 2031668 2032987 2034282 2035877 2037401 2037347 2033526 2029468 2027466 2026490 2025929 2025703 2025824 2026349 2026538 2026779 2027101 2027793 2028757 2029877 2031423 2032766 2034388 2035996 2037449 2036685 2032850 2030390 2029616 2029341 2029432 2029974 2030578 2031182 2031572 2032050 2033051 2034087 2035359 2036718 2038179 2039695 2041309 2042708 2041567 2038324 2036370 2035970 2035993 2036535 2037395 2038322 2038739 2039216 2039951 2040860 2042067 2043456 2044676 2046201 2047813 2049223 2049153 2045917 2042611 2041120 2040511 2040296 2040316 2040788 2041330 2041472 2041927 2042359 2043023 2044092 2045273 2046443 2047725 2049067 2050590 2050526 2047021 2043020 2041157 2040298 2039722 2039603 2039847 2040298 2040440 2040794 2041232 2041908 2042902 2044094 2045352 2046650 2048025 2049541 2050615 2048915 2044824 2042316 2041190 2040846 2040754 2040985 2041465 2041893 2042193 2042487 2043179 2043970 2045040 2046202 2047490 2048890 2050392 2051913 2051657 2048106 2044893 2043482 2043232 2043147 2043611 2044173 2044887 2045267 2045771 2046558 2047434 2048448 2049744 2051097 2052591 2053962 2055421 2055293 2052157 2049744 2049027 2049069 2049448 2050256 2051193 2051785 2052253 2052841 2053610 2054554 2055739 2056961 2058264 2059771 2061094 2061965 2060457 2056607 2054612 2053724 2053535 2053615 2053983 2054668 2054956 2055113 2055541 2056217 2056869 2058028 2059168 2060444 2061694 2062863 2064031 2062524 2058362 2055570 2054212 2053504 2053032 2053176 2053578 2053757 2053947 2054279 2054776 2055351 2056455 2057360 2058541 2059808 2061183 2062362 2062523 2059387 2055371 2053262 2052236 2051663 2051378 2051570 2051830 2052162 2052326 2052520 2053077 2053851 2054784 2055837 2057028 2058219 2059601 2060730 2060498 2056813 2053363 2051659 2050874 2050596 2050614 2051072 2051428 2051738 2052172 2052753 2053434 2054377 2055428 2056691 2057885 2059378 2060608 2061942 2060991 2057706 2055480 2054664 2054616 2054850 2055571 2056374 2056793 2057180 2057808 2058490 2059397 2060458 2061805 2062927 2064314 2065552 2066566 2065545 2062331 2060104 2059283 2059034 2059239 2059860 2060384 2060567 2060932 2061340 2061876 2062702 2063905 2064925 2066102 2067274 2068409 2069005 2066663 2062448 2059832 2058547 2057719 2057297 2057403 2057588 2057661 2057726 2057953 2058305 2058870 2059771 2060761 2061747 2062910 2064115 2065324 2065499 2062277 2058114 2055800 2054452 2053748 2053341 2053253 2053611 2053507 2053469 2053766 2054188 2054816 2055610 2056609 2057560 2058728 2059874 2061061 2060906 2057005 2053046 2050868 2049714 2048834 2048476 2048635 2048537 2048447 2048470 2048565 2049064 2049652 2050570 2051609 2052678 2053818 2055161 2056500 2055753 2051911 2048563 2046837 2046136 2046022 2046038 2046344 2046478 2046370 2046523 2046721 2047330 2048248 2049194 2050377 2051604 2052827 2053941 2053683 2050146 2046561 2044790 2044016 2043802 2043875 2044164 2044381 2044300 2044303 2044584 2045168 2046146 2047017 2048038 2049422 2050583 2051883 2051931 2048137 2043729 2041104 2039585 2038588 2037952 2037666 2037657 2037433 2037190 2037428 2037783 2038321 2039421 2040261 2041442 2042740 2043983 2044810 2042258 2036992 2033523 2031565 2029857 2028841 2028449 2028246 2028136 2027731 2027627 2027888 2028243 2029195 2030262 2031419 2032746 2034056 2035526 2036261 2033141 2028074 2025166 2023389 2022338 2021629 2021729 2022000 2022122 2022069 2022428 2022896 2023832 2024835 2026143 2027515 2029190 2030918 2032448 2032742 2029278 2025344 2023498 2022667 2022397 2022626 2023013 2023678 2024272 2024602 2025531 2026354 2027591 2028994 2030505 2032036 2033746 2035458 2036763 2034855 2030845 2028550 2027787 2027669 2027764 2028460 2029259 2029768 2030168 2030948 2031786 2033141 2034474 2035984 2037514 2039311 2041142 2042792 2042606 2039350 2036760 2036229 2036414 2036909 2037850 2038771 2039371 2039870 2040492 2041463 2042675 2044107 2045428 2047136 2048625 2050242 2051664 2050935 2046959 2044475 2043900 2043913 2044008 2044657 2045490 2045976 2046268 2046772 2047574 2048710 2049862 2051124 2052613 2053977 2055503 2057016 2057681 2054132 2050250 2048695 2048073 2047882 2047930 2048507 2049061 2049405 2049654 2050223 2051169 2052257 2053482 2054852 2056261 2057628 2059093 2060603 2061307 2058172 2054259 2052636 2052132 2052022 2052258 2052609 2053397 2053908 2054389 2054910 2055756 2056739 2057937 2059295 2060624 2062292 2063641 2065264 2066452 2065478 2061339 2058838 2058128 2058192 2058538 2059027 2059637 2060414 2060903 2061401 2062441 2063354 2064540 2065959 2067293 2068815 2070260 2071665 2073155 2072759 2069394 2067384 2067274 2067620 2068346 2069370 2070114 2070910 2071432 2072075 2072951 2074000 2075219 2076455 2077751 2079117 2080506 2081805 2081994 2079133 2075910 2074737 2074457 2074641 2074926 2075552 2076093 2076366 2076557 2076988 2077637 2078411 2079353 2080543 2081598 2082876 2083871 2085011 2083942 2079421 2076007 2074444 2073791 2073333 2073131 2073243 2073396 2073329 2073185 2073396 2073803 2074444 2075176 2076255 2077082 2078285 2079212 2080193 2078654 2073601 2069694 2067938 2066922 2066134 2065827 2065947 2065797 2065663 2065600 2065664 2066017 2066584 2067553 2068457 2069362 2070466 2071594 2072272 2069293 2063951 2060965 2059609 2058896 2058480 2058429 2058609 2058572 2058532 2058643 2058911 2059611 2060526 2061480 2062567 2063760 2064962 2066009 2064310 2059740 2056908 2055628 2055437 2055481 2056014 2056536 2056680 2056672 2056973 2057349 2058189 2059264 2060365 2061431 2062758 2064110 2064710 2061957 2056998 2054086 2052933 2052309 2052154 2052437 2052679 2052510 2052431 2052527 2053023 2053781 2054809 2055659 2056768 2058104 2059363 2059847 2056128 2050738 2047896 2046562 2045557 2045054 2045009 2044996 2045028 2044643 2044935 2045240 2045923 2046864 2047983 2048993 2050386 2051646 2052759 2050221 2044516 2041111 2039511 2038578 2037737 2037517 2037699 2037707 2037502 2037552 2037961 2038611 2039506 2040810 2041838 2043268 2044678 2046108 2046910 2043343 2038224 2035644 2034555 2033857 2033351 2033525 2033840 2033980 2034199 2034621 2035269 2036274 2037627 2038984 2040559 2042141 2043808 2045537 2046299 2043265 2039268 2037742 2037441 2037607 2038012 2038741 2039215 2039616 2039941 2040608 2041492 2042778 2044173 2045561 2047095 2048658 2050237 2051424 2049470 2044930 2042648 2041913 2041831 2041998 2042429 2043043 2043254 2043466 2043868 2044537 2045586 2046785 2048049 2049272 2050727 2052098 2053749 2054372 2051108 2046425 2044223 2043270 2042566 2042198 2042251 2042668 2042770 2042803 2043090 2043504 2044581 2045418 2046650 2048067 2049355 2050821 2052311 2053621 2051687 2046591 2043543 2042320 2041722 2041175 2041290 2041608 2041918 2041928 2042203 2042878 2043739 2044742 2045895 2047341 2048744 2050241 2051844 2053411 2054093 2051004 2046651 2044648 2044092 2043882 2044041 2044508 2045109 2045557 2045906 2046477 2047372 2048375 2049763 2051092 2052583 2054115 2055598 2057149 2058014 2055455 2051978 2050646 2050340 2050801 2051388 2052286 2052988 2053367 2053840 2054497 2055442 2056643 2057839 2059192 2060526 2062012 2063336 2064209 2061959 2057804 2055370 2054866 2054844 2054975 2055548 2056125 2056249 2056443 2056920 2057644 2058568 2059696 2061016 2062069 2063419 2064823 2065927 2064244 2059446 2056116 2054762 2053906 2053489 2053389 2053691 2053815 2053904 2054109 2054383 2055012 2055834 2057007 2058126 2059385 2060706 2061936 2062959 2060714 2055681 2052616 2051396 2050665 2050208 2050069 2050310 2050581 2050653 2050765 2051097 2051908 2052803 2053986 2055074 2056364 2057690 2059210 2060010 2057505 2052481 2049757 2048574 2048000 2047757 2047763 2048205 2048111 2048315 2048491 2049119 2049696 2050772 2052011 2053121 2054541 2056046 2057367 2057237 2053265 2049763 2048322 2047984 2047839 2048378 2048929 2049293 2049454 2049578 2050128 2050790 2051863 2053092 2054355 2055624 2056957 2058339 2056509 2052071 2049384 2048323 2048060 2047983 2048356 2048806 2048748 2048866 2049071 2049677 2050313 2051369 2052616 2053758 2055065 2056441 2057379 2054521 2049440 2046552 2045252 2044424 2043842 2043940 2043933 2043839 2043768 2044065 2044326 2045265 2046179 2047279 2048520 2049842 2051293 2052662 2052152 2047202 2043026 2041098 2040147 2039142 2038775 2038863 2039003 2038957 2038831 2039295 2039900 2040720 2041798 2042982 2044269 2045585 2047080 2048353 2046897 2041711 2038164 2036623 2035658 2034790 2034752 2034852 2035067 2034857 2034873 2035277 2036131 2037142 2038359 2039549 2040934 2042415 2043905 2044841 2041563 2037005 2034615 2033840 2033373 2033255 2033677 2034138 2034066 2034334 2034762 2035401 2036510 2037806 2039185 2040712 2042337 2043850 2044881 2042199 2038291 2036610 2036207 2036421 2037072 2037849 2038396 2038524 2038822 2039503 2040469 2041596 2042789 2044349 2045837 2047374 2048991 2049327 2045381 2041262 2039435 2038733 2038472 2038659 2039124 2039489 2039606 2039872 2040573 2041331 2042428 2043839 2045223 2046812 2048310 2049925 2050876 2047993 2043355 2040990 2039896 2039444 2039175 2039324 2039765 2040213 2040388 2040877 2041607 2042622 2043911 2045158 2046717 2048135 2049733 2051202 2051892 2048203 2043950 2042150 2041367 2040979 2040995 2041405 2042044 2042444 2042714 2043302 2044298 2045236 2046731 2048260 2049690 2051401 2053080 2054741 2054706 2051190 2048088 2047103 2046968 2047315 2047979 2048887 2049569 2049833 2050207 2051036 2051942 2053082 2054415 2055836 2057338 2058664 2060218 2060117 2056127 2052914 2051796 2051631 2051695 2052239 2052939 2053274 2053324 2053710 2054190 2055171 2056073 2057295 2058552 2059889 2061227 2062611 2063745 2061031 2056084 2053497 2052402 2051843 2051539 2051658 2052025 2052016 2052011 2052335 2052848 2053611 2054663 2055786 2057524 2058772 2060216 2061640 2062174 2058588 2053761 2051536 2050746 2050404 2050131 2050480 2050826 2051164 2051360 2051715 2052324 2053224 2054419 2055661 2056891 2058453 2059899 2061356 2060822 2056295 2052777 2051412 2051055 2050916 2051300 2051728 2052323 2052488 2052750 2053353 2054134 2055252 2056267 2057897 2059272 2060649 2062133 2062952 2059870 2055516 2053700 2053223 2053281 2053727 2054400 2055011 2055504 2055900 2056652 2057403 2058545 2059836 2061120 2062705 2064174 2065763 2066699 2064601 2060814 2059174 2058914 2059166 2059735 2060603 2061270 2061632 2062067 2062638 2063517 2064624 2065758 2067004 2068453 2069825 2070977 2069283 2065297 2062968 2062210 2062286 2062395 2063136 2063675 2063881 2063963 2064322 2065000 2065839 2066906 2067909 2069173 2070250 2071671 2071218 2066396 2062235 2060333 2059204 2058429 2058150 2058158 2058265 2058157 2057946 2058273 2058700 2059447 2060256 2061417 2062503 2063653 2065028 2063959 2058628 2054191 2052155 2051040 2049993 2049500 2049446 2049460 2049258 2049115 2049317 2049833 2050389 2051431 2052498 2053687 2054836 2056291 2056717 2053156 2047804 2045070 2043710 2042880 2042303 2042276 2042383 2042519 2042278 2042527 2042776 2043608 2044708 2045835 2046969 2048189 2049661 2050904 2049193 2043804 2040398 2038950 2038279 2037868 2037953 2038307 2038471 2038560 2038671 2039008 2039905 2041017 2042271 2043574 2045033 2046552 2047800 2046729 2041858 2038722 2037564 2037110 2037258 2037588 2038290 2038638 2038812 2039280 2040062 2041106 2042293 2043696 2045147 2046809 2048335 2048645 2045245 2041786 2040630 2040570 2040834 2041488 2042359 2042990 2043353 2043829 2044512 2045579 2046748 2048120 2049634 2051158 2052717 2053857 2051643 2047155 2044718 2043913 2043760 2043588 2044118 2044570 2044931 2045060 2045490 2046214 2047102 2048182 2049581 2050768 2052270 2053733 2054326 2051184 2046084 2043513 2042345 2041455 2040955 2040993 2041338 2041245 2041327 2041528 2042018 2042848 2043877 2044962 2046382 2047732 2049237 2050165 2047170 2042058 2039294 2037994 2037343 2036804 2036931 2037366 2037533 2037583 2037861 2038529 2039260 2040320 2041556 2042894 2044363 2045728 2047204 2045558 2040516 2037478 2036297 2035484 2035385 2035676 2036080 2036587 2036816 2037344 2038059 2038907 2040064 2041548 2042869 2044430 2046045 2047101 2044825 2040375 2038104 2037560 2037217 2037576 2038241 2038846 2039462 2039829 2040355 2041246 2042427 2043662 2045124 2046637 2048302 2049916 2049562 2045947 2043422 2042728 2042890 2043630 2044627 2045518 2046253 2046743 2047450 2048357 2049400 2050946 2052204 2053692 2055103 2056578 2055686 2051352 2048443 2047419 2047256 2047078 2047548 2048105 2048618 2048773 2049250 2049723 2050733 2051739 2052902 2054234 2055560 2057040 2056491 2051908 2047870 2046176 2045142 2044633 2044401 2044630 2044842 2044805 2044807 2045046 2045647 2046502 2047542 2048729 2049957 2051173 2051223 2046908 2042164 2039483 2038134 2037160 2036632 2036728 2036839 2036804 2036493 2036689 2037147 2038009 2038994 2040110 2041227 2042820 2043688 2040063 2034613 2031493 2029832 2028563 2027858 2027721 2027806 2027865 2027605 2027598 2028007 2028918 2029780 2030878 2032159 2033485 2034948 2034583 2029481 2025034 2022876 2021868 2021230 2021015 2021497 2022020 2022082 2022352 2022924 2023648 2024865 2026358 2027903 2029405 2031215 2032869 2031813 2027161 2023990 2023061 2022847 2022990 2023686 2024406 2024810 2025159 2025636 2026573 2027837 2029213 2030808 2032435 2034105 2035884 2036246 2032278 2028489 2027138 2026970 2026975 2027571 2028442 2028940 2029100 2029393 2030308 2031363 2032711 2034137 2035660 2037168 2038944 2040313 2038077 2033113 2030223 2029148 2028518 2028095 2028302 2028833 2029137 2029173 2029550 2030256 2031303 2032446 2033960 2035442 2036983 2038694 2040105 2037939 2033063 2030213 2029135 2028571 2028163 2028539 2029200 2029558 2029955 2030446 2031250 2032419 2033737 2035272 2036635 2038401 2039988 2041668 2042168 2038188 2034382 2032877 2032368 2032345 2032779 2033465 2034136 2034650 2035141 2036071 2037044 2038479 2039849 2041517 2043250 2044910 2046583 2047420 2044191 2041121 2040246 2040532 2041121 2042034 2043164 2043966 2044393 2044957 2045822 2047014 2048311 2049792 2051228 2052777 2054479 2055560 2053224 2049253 2047526 2047137 2047124 2047607 2048374 2049136 2049354 2049726 2050310 2051191 2052131 2053508 2054764 2056149 2057598 2059040 2058862 2054432 2050553 2048996 2048406 2047898 2047786 2048324 2048717 2048767 2048877 2049311 2050111 2051082 2052249 2053517 2054796 2056213 2057605 2057344 2052913 2048995 2047079 2046201 2045834 2045869 2046218 2046644 2047028 2047116 2047793 2048342 2049483 2050551 2051897 2053259 2054881 2056398 2057176 2054328 2049883 2047708 2047137 2046948 2047161 2047714 2048428 2048815 2049345 2049833 2050730 2051726 2052927 2054384 2055864 2057483 2059001 2059926 2057430 2053692 2052151 2052143 2052341 2053123 2054052 2054772 2055349 2055930 2056557 2057530 2058734 2060053 2061492 2062817 2064660 2065921 2064004 2059879 2057713 2057117 2057157 2057523 2058151 2058837 2059167 2059566 2059826 2060727 2061741 2062731 2063852 2065032 2066429 2067690 2068193 2065910 2061675 2059517 2058494 2058023 2058032 2058249 2058615 2059069 2059146 2059472 2059985 2060719 2061777 2063019 2064116 2065397 2066766 2067432 2064594 2059875 2057215 2055949 2055337 2055032 2055115 2055437 2055686 2055939 2056267 2056693 2057500 2058486 2059573 2060871 2062030 2063288 2064585 2063137 2058510 2055083 2053583 2053116 2052822 2053011 2053591 2053953 2054166 2054520 2055050 2055920 2057087 2058185 2059481 2060896 2062363 2063585 2062529 2058966 2056497 2055781 2055820 2056090 2056793 2057542 2058051 2058480 2059062 2059713 2060649 2061814 2062912 2064104 2065330 2066721 2066476 2063094 2059654 2058065 2057264 2057032 2057304 2057625 2057848 2058007 2058180 2058705 2059359 2060112 2061114 2062137 2063229 2064405 2065161 2062866 2057744 2054511 2053031 2052129 2051484 2051591 2051643 2051751 2051609 2051768 2052196 2052896 2053662 2054647 2055863 2057106 2058345 2059450 2057932 2053101 2049646 2048139 2047254 2046744 2046671 2047008 2047373 2047507 2047867 2048380 2049215 2050287 2051462 2052769 2054064 2055558 2056896 2057237 2053883 2050331 2048857 2048246 2048234 2048709 2049377 2050000 2050337 2050746 2051239 2052099 2053115 2054354 2055661 2056998 2058321 2059509 2057803 2054064 2051785 2051102 2050809 2051038 2051653 2052419 2052633 2053143 2053667 2054296 2055234 2056318 2057624 2058878 2060109 2061488 2061506 2058086 2054258 2052131 2051184 2050786 2050726 2051102 2051566 2051670 2051862 2052212 2052938 2053766 2054752 2055840 2057040 2058346 2059842 2059793 2056205 2051882 2049665 2048475 2047792 2047766 2047900 2048026 2048449 2048814 2049170 2049817 2050662 2051621 2053043 2054328 2055603 2057069 2058050 2056199 2052212 2049917 2049115 2048846 2049117 2049664 2050420 2050908 2051439 2051947 2052871 2053893 2055117 2056302 2057791 2059163 2060397 2059299 2055587 2053212 2052300 2052134 2052300 2052999 2053764 2054132 2054528 2054950 2055724 2056619 2057732 2058803 2060108 2061452 2062871 2063359 2060444 2056119 2054033 2053079 2052552 2052737 2052969 2053542 2053943 2054341 2054709 2055508 2056436 2057669 2059070 2060309 2061720 2063086 2064053 2062028 2057887 2055770 2054852 2054625 2054779 2055086 2055568 2056123 2056497 2057028 2057686 2058667 2059880 2061179 2062491 2063863 2065279 2066671 2065886 2062300 2059944 2059270 2059191 2059633 2060333 2061191 2061918 2062634 2063418 2064246 2065271 2066581 2067927 2069265 2070711 2072288 2073251 2071929 2069271 2067967 2067907 2068265 2069035 2070080 2070931 2071618 2072329 2073271 2074112 2075658 2076738 2078106 2079250 2080755 2081838 2081014 2077795 2075341 2074416 2074208 2074551 2074981 2075611 2076041 2076567 2077018 2077520 2078335 2079238 2080198 2081308 2082507 2083736 2084734 2083653 2079691 2076752 2075236 2074497 2074336 2074421 2074797 2075207 2075360 2075572 2076066 2076702 2077510 2078409 2079476 2080582 2081739 2082903 2082913 2079838 2075878 2073838 2072769 2072404 2072329 2072607 2072812 2073126 2073344 2073724 2074210 2075098 2075843 2076823 2078113 2079329 2080298 2080919 2078846 2075420 2073550 2072790 2072772 2072902 2073463 2074030 2074290 2074540 2075029 2075683 2076317 2077494 2078419 2079491 2080583 2081390 2079857 2075895 2073155 2071899 2071131 2070880 2071128 2071292 2071366 2071240 2071611 2071884 2072601 2073310 2074159 2075048 2076172 2077267 2077030 2073538 2069071 2066281 2064908 2063895 2063371 2063354 2063303 2063183 2063099 2063276 2063674 2064228 2065071 2065986 2067100 2068029 2069078 2067392 2062532 2058680 2056574 2055520 2054854 2054584 2054715 2054822 2054758 2055010 2055334 2055925 2056655 2057610 2058594 2059799 2061019 2062207 2061176 2056778 2053063 2051166 2050230 2049691 2049671 2050048 2050332 2050640 2050823 2051368 2052116 2053100 2054255 2055507 2056792 2058090 2059445 2058513 2055136 2052324 2051142 2050883 2051038 2051672 2052350 2053014 2053476 2053936 2054714 2055826 2056851 2058115 2059419 2060684 2062206 2062233 2059256 2055919 2054169 2053345 2053323 2053494 2054023 2054439 2054785 2055384 2055831 2056743 2057761 2058800 2060113 2061310 2062562 2063970 2063588 2060249 2056454 2054657 2053685 2053215 2053038 2053426 2053779 2054199 2054432 2054832 2055423 2056310 2057349 2058680 2059837 2061134 2062492 2062579 2059846 2055558 2053224 2052158 2051696 2051476 2051631 2052133 2052568 2052731 2053186 2053990 2054822 2055797 2056897 2058053 2059453 2060735 2061985 2060840 2056966 2053954 2052664 2052069 2051986 2052389 2052938 2053394 2053890 2054453 2055085 2055920 2057136 2058367 2059679 2060987 2062401 2063792 2063593 2061189 2058438 2057236 2056966 2057189 2057817 2058596 2059288 2059808 2060384 2061210 2062165 2063215 2064588 2065664 2067040 2068350 2069460 2068307 2064908 2062425 2061355 2060910 2060974 2061442 2061853 2062324 2062731 2063156 2063806 2064619 2065571 2066627 2067811 2069004 2070199 2071153 2070022 2066152 2062969 2061385 2060610 2060288 2060256 2060672 2061013 2061241 2061533 2062133 2062996 2063850 2064773 2065982 2067141 2068336 2069647 2069515 2066772 2062955 2060704 2059679 2059322 2059214 2059626 2060110 2060366 2060713 2061296 2061908 2062765 2063719 2064930 2066113 2067227 2068607 2069262 2067553 2063701 2061043 2059924 2059346 2059261 2059479 2060078 2060477 2060812 2061307 2061924 2062924 2063811 2064859 2066051 2067448 2068675 2069884 2068971 2066112 2063408 2062411 2062110 2062190 2062889 2063589 2064147 2064439 2065200 2065913 2066913 2067945 2068949 2070250 2071465 2072829 2073132 2071118 2067764 2065927 2065155 2064887 2065109 2065655 2066187 2066444 2066955 2067361 2068064 2069022 2070087 2071177 2072277 2073314 2074629 2074488 2071633 2067488 2065233 2064014 2063445 2063330 2063215 2063728 2063906 2064149 2064493 2065198 2065829 2066889 2067800 2068984 2070058 2071410 2072504 2070967 2066857 2063758 2062094 2061213 2060792 2061057 2061306 2061728 2062102 2062475 2062999 2063868 2064836 2066007 2067061 2068286 2069421 2070815 2071066 2068734 2065021 2062828 2062087 2061684 2061858 2062265 2062857 2063352 2063742 2064415 2065247 2066276 2067318 2068506 2069688 2071055 2072428 2073708 2073335 2071371 2068998 2067921 2067704 2067960 2068579 2069345 2070174 2070640 2071396 2072223 2073107 2074193 2075278 2076404 2077629 2078835 2080152 2079316 2076853 2074230 2072650 2072018 2071995 2072233 2072710 2073044 2073481 2073981 2074522 2075349 2076250 2077312 2078363 2079490 2080647 2081931 2082657 2081035 2077689 2074764 2073213 2072421 2072290 2072347 2072540 2072918 2073183 2073566 2074076 2074877 2075667 2076573 2077750 2078792 2080013 2081116 2081819 2080288 2076878 2074276 2072769 2071903 2071659 2071836 2072087 2072572 2072879 2073260 2073871 2074633 2075462 2076584 2077804 2078894 2080176 2081327 2081519 2079651 2076606 2074725 2073740 2073526 2073602 2074006 2074614 2074904 2075340 2075970 2076840 2077669 2078655 2079679 2081042 2082232 2083304 2083941 2082782 2080604 2079045 2078234 2078029 2078231 2078967 2079517 2079941 2080377 2081018 2081845 2082690 2083642 2084752 2085749 2086965 2088069 2088621 2086700 2083741 2081073 2079755 2078991 2078684 2078972 2079129 2079427 2079671 2080069 2080565 2081240 2082152 2083012 2084110 2085218 2086354 2087301 2087396 2085132 2081358 2078860 2077416 2076527 2076229 2076287 2076541 2076713 2077040 2077387 2077888 2078561 2079468 2080483 2081456 2082539 2083641 2084862 2085377 2083361 2080505 2078089 2076712 2076236 2076067 2076343 2076718 2077066 2077447 2078058 2078636 2079475 2080500 2081385 2082664 2083668 2084840 2086128 2086889 2085568 2083667 2081940 2081103 2080854 2081005 2081717 2082331 2082665 2083159 2083884 2084598 2085480 2086488 2087606 2088638 2089838 2090910 2092146 2091232 2089365 2087378 2086235 2085762 2085842 2086024 2086653 2086986 2087259 2087732 2088407 2089045 2089967 2090971 2091984 2093129 2094157 2095206 2095913 2094310 2091389 2088690 2087256 2086167 2085719 2085777 2085975 2086134 2086264 2086554 2086949 2087639 2088449 2089364 2090225 2091155 2092206 2093288 2094069 2092619 2089696 2086749 2084878 2083660 2083173 2083118 2083237 2083416 2083518 2083704 2084135 2084755 2085502 2086241 2087343 2088262 2089429 2090528 2091591 2091258 2089179 2086486 2085037 2083990 2083693 2083833 2084210 2084616 2084831 2085196 2085627 2086356 2087248 2088146 2089118 2090131 2091131 2092303 2092855 2090915 2089241 2087755 2086950 2086691 2087032 2087391 2087821 2088070 2088583 2089085 2089714 2090498 2091526 2092387 2093472 2094424 2095640 2096567 2095144 2092726 2089988 2088141 2087039 2086451 2086324 2086554 2086685 2086788 2087202 2087615 2088152