2283112 2283237 2283468 2283640 2283818 2283817 2068554 2068547 2068562 2106486 2106570 2106829 2106951 2086681 2087888 2089034 2103472 2105300 2106946 2108825 2111794 2117046 2123706 2127362 2132073 2137319 2142346 2147127 2150535 2153130 2154658 2156038 2157497 2159762 2161683 2163885 2165702 2167224 2168993 2170103 2169581 2169482 2170129 2171382 2172521 2172723 2172722 2173393 2174506 2176105 2177848 2179552 2181043 2182924 2184478 2185885 2186458 2186645 2186947 2187557 2188385 2189430 2190562 2191337 2192216 2193238 2194416 2195761 2197035 2198307 2199630 2200801 2201214 2201137 2201264 2201746 2202280 2203297 2204139 2205182 2205787 2206935 2207943 2209154 2210396 2211624 2212655 2213117 2212922 2212620 2213111 2213617 2214587 2215394 2216106 2216713 2217305 2218085 2219054 2220055 2221229 2222177 2222583 2221843 2221214 2221170 2221612 2222120 2222583 2222849 2223135 2223698 2224422 2225020 2226062 2226950 2227808 2228154 2226958 2226157 2225898 2226164 2226610 2226815 2227129 2227390 2227894 2228360 2229192 2229838 2230614 2231258 2231682 2230379 2229077 2228776 2229105 2229302 2229683 2229671 2229715 2229997 2230337 2230864 2231522 2232211 2232783 2232726 2231060 2229434 2228844 2228756 2228953 2228916 2228998 2228744 2228849 2229224 2229709 2230250 2230685 2231287 2231438 2228977 2226591 2225292 2224548 2224036 2223773 2223575 2223368 2223170 2223369 2223721 2224063 2224566 2224971 2225192 2225065 2221378 2217998 2215869 2214018 2212552 2211652 2210993 2210277 2209733 2209410 2209444 2209654 2210117 2210349 2210688 2211168 2211886 2211769 2207456 2203296 2200745 2198625 2196735 2195823 2194998 2194177 2193416 2193221 2193392 2193619 2194095 2194451 2195051 2195560 2196293 2197107 2196748 2192086 2188244 2186342 2184899 2183669 2183204 2182662 2182125 2181990 2181907 2182406 2183108 2183861 2184591 2185086 2186128 2187226 2188282 2187689 2183119 2180041 2178646 2177773 2177160 2176928 2176620 2176568 2176611 2177165 2177813 2178534 2179402 2180172 2181166 2182145 2183421 2183435 2179846 2177135 2176112 2175864 2175845 2176197 2176266 2176356 2176761 2177629 2178457 2179470 2180617 2181604 2182799 2184082 2185372 2184049 2180501 2178227 2177782 2177458 2177191 2177590 2177946 2178068 2178688 2179471 2180352 2181584 2182913 2184057 2185234 2186466 2187949 2188214 2184487 2181090 2179674 2179104 2178590 2178637 2178669 2178848 2179427 2179900 2180872 2181898 2183151 2184312 2185456 2186772 2188099 2189410 2187594 2183827 2181898 2181295 2181040 2181265 2181610 2181691 2182137 2182768 2183750 2184891 2185945 2187338 2188645 2189951 2191358 2192896 2192912 2189733 2187328 2186540 2186691 2186771 2187306 2187603 2187947 2188533 2189424 2190552 2191811 2192967 2194256 2195777 2197066 2198597 2199085 2196680 2194155 2193308 2193335 2193840 2194519 2194919 2195055 2195631 2196447 2197596 2198812 2200098 2201339 2202760 2204050 2205495 2205537 2203432 2201331 2200793 2201004 2201701 2202298 2202580 2202727 2203059 2203940 2205039 2206327 2207493 2208703 2209735 2210989 2210841 2208568 2206763 2206077 2206304 2206945 2207457 2207618 2207705 2207973 2208710 2209959 2210905 2211946 2213115 2214247 2214643 2212452 2208990 2207189 2206844 2206873 2207310 2207183 2206914 2206826 2207341 2207923 2208867 2209915 2210807 2211680 2211826 2208220 2203829 2201350 2200339 2199824 2199550 2199118 2198646 2198225 2198518 2199059 2199793 2200437 2201343 2202138 2202387 2197875 2191791 2188669 2186955 2185659 2185064 2184143 2183309 2182530 2182501 2182895 2183411 2183847 2184413 2185088 2185645 2182328 2174992 2170690 2168351 2166628 2165350 2164355 2163276 2162345 2162119 2162229 2162913 2163437 2163966 2164906 2165717 2166708 2166413 2158961 2152590 2149752 2147622 2145989 2145231 2144325 2143616 2143248 2143723 2144294 2145215 2145991 2147044 2147881 2149149 2150570 2150710 2144091 2138148 2135754 2134409 2133850 2133469 2133199 2132865 2132921 2133619 2134652 2135866 2137187 2138352 2139744 2141259 2142719 2139733 2132785 2129373 2127919 2126979 2126869 2126861 2126601 2126580 2127259 2128454 2129766 2131280 2132661 2134096 2135704 2137671 2139416 2137354 2129889 2125631 2123611 2121669 2120444 2120281 2120262 2120065 2120499 2121266 2122704 2124231 2125843 2127522 2129094 2130918 2132946 2134660 2130196 2123259 2120008 2117982 2115740 2114919 2114843 2115038 2115057 2115645 2116840 2118225 2119858 2121690 2123368 2125259 2127255 2129425 2131606 2131826 2125301 2120299 2118361 2116866 2115464 2115266 2115549 2115885 2116422 2117269 2118879 2120393 2122217 2124236 2126137 2128023 2130254 2132469 2134654 2133942 2127864 2124410 2123201 2122809 2122354 2122734 2123140 2123530 2124126 2125479 2127092 2128670 2130304 2132290 2134153 2136087 2138071 2140378 2141693 2137385 2133047 2131767 2131800 2131970 2132551 2133111 2133553 2134328 2135380 2136833 2138588 2140339 2142043 2143803 2145676 2147723 2149831 2151559 2148629 2144190 2142410 2142302 2142798 2143594 2144180 2144593 2145259 2146460 2147874 2149719 2151528 2153249 2154844 2156844 2158761 2160795 2162208 2159429 2155761 2154357 2154451 2155207 2156406 2156900 2157192 2157706 2158866 2160547 2162235 2164083 2165849 2167656 2169331 2171314 2172613 2170675 2167039 2165654 2165809 2166393 2167581 2168209 2168579 2168979 2170113 2171567 2173129 2174710 2176242 2177947 2179435 2180345 2177411 2173786 2172166 2171985 2172620 2173369 2173560 2173544 2173885 2174775 2175990 2177573 2179058 2180514 2181936 2183041 2180071 2174847 2172285 2171512 2171262 2171481 2171583 2171234 2171092 2171354 2172401 2173519 2174802 2176047 2177290 2178560 2177390 2170348 2165554 2163301 2162057 2161109 2160604 2160066 2159397 2159356 2159526 2160231 2161130 2162012 2163061 2164050 2165243 2161580 2153449 2149108 2147185 2145562 2144457 2143926 2143193 2142620 2142522 2143095 2144160 2145239 2146399 2147483 2148488 2149856 2149933 2142312 2136348 2134105 2132997 2132328 2132080 2131535 2131061 2130916 2131444 2132516 2133644 2134949 2136104 2137537 2139062 2140771 2138958 2131574 2127590 2126447 2125769 2125592 2125803 2125564 2125309 2125700 2126812 2127994 2129580 2130926 2132425 2134116 2135892 2137164 2132418 2126338 2124024 2123560 2123255 2123514 2123700 2123421 2123753 2124634 2126068 2127773 2129367 2130919 2132563 2134363 2136551 2136945 2130155 2124891 2123051 2122332 2121497 2121456 2121346 2121295 2121720 2122666 2124028 2125588 2127315 2128962 2130658 2132549 2134642 2135323 2128576 2123384 2121639 2120906 2120217 2120257 2120159 2120321 2120730 2121765 2123015 2124792 2126620 2128241 2130034 2131973 2134059 2136198 2135868 2129444 2125482 2124705 2124563 2124528 2125124 2125281 2125704 2126503 2127838 2129373 2131158 2133038 2134773 2136569 2138650 2140924 2142754 2139895 2134980 2133174 2133061 2133498 2134215 2134670 2135120 2135699 2136806 2138464 2140159 2142025 2143951 2145675 2147568 2149691 2151868 2152288 2147914 2144789 2144338 2144915 2145970 2146864 2147421 2147743 2148594 2150114 2151826 2153692 2155564 2157143 2159032 2160789 2163082 2164507 2162222 2158982 2157803 2158191 2159413 2160695 2161514 2161824 2162572 2163880 2165478 2167436 2169434 2171123 2173167 2175094 2176521 2175706 2172248 2170621 2170739 2171424 2172623 2173299 2173581 2173822 2174694 2175972 2177568 2179340 2180810 2182522 2184112 2183748 2179601 2176944 2176191 2176511 2177390 2178112 2178315 2178548 2179314 2180403 2181800 2183461 2184798 2186349 2187742 2188256 2183324 2178581 2176648 2175970 2175849 2175949 2175835 2175443 2175518 2176120 2177097 2178060 2179015 2180057 2181322 2182116 2177722 2171172 2167975 2166597 2165696 2165077 2164734 2163857 2163458 2163422 2164005 2164838 2165805 2166653 2167555 2168607 2169351 2164267 2157144 2153893 2152289 2151296 2150541 2149890 2148857 2148377 2148358 2149014 2149908 2150998 2151867 2152857 2154010 2155608 2154963 2147521 2142247 2140322 2139182 2138726 2138372 2137712 2136920 2136714 2137242 2137997 2139042 2139893 2140663 2141913 2143120 2144653 2142744 2135669 2131557 2130432 2129902 2129907 2129829 2129221 2128563 2128883 2129698 2130831 2132065 2133301 2134625 2136167 2137598 2135425 2128873 2125343 2124391 2124370 2124660 2124804 2124599 2124360 2124976 2126289 2127622 2129162 2130549 2132104 2133853 2135535 2133169 2125812 2122282 2121075 2120658 2120681 2120646 2120543 2120501 2121035 2122122 2123697 2125169 2126799 2128254 2130061 2131944 2132664 2126026 2119896 2117701 2116970 2116099 2116034 2115832 2115842 2115993 2116852 2118251 2119717 2121233 2123070 2124870 2126567 2128641 2130247 2124950 2117981 2115287 2114564 2113679 2113557 2113512 2113487 2113821 2114507 2115864 2117427 2119288 2121064 2122764 2124741 2126727 2129070 2130813 2126001 2119764 2117422 2116861 2116682 2117061 2117358 2117561 2117905 2119007 2120518 2122159 2123908 2125827 2127692 2129765 2131693 2134128 2136087 2133081 2127759 2125836 2125821 2126382 2127216 2127815 2128178 2128774 2130131 2131931 2133754 2135842 2137615 2139617 2141731 2143871 2146074 2146641 2142834 2140117 2139621 2140397 2141707 2142839 2143407 2143720 2144583 2145986 2147798 2149902 2151760 2153499 2155365 2157389 2158632 2156636 2153267 2151897 2152265 2153220 2154527 2155315 2155723 2156265 2157397 2159023 2160688 2162531 2164478 2166105 2167502 2165836 2161894 2159969 2159716 2160338 2161350 2161904 2162128 2162432 2163345 2164630 2166258 2167791 2169320 2171141 2171528 2167304 2162301 2160071 2159451 2159467 2159695 2159884 2159261 2159288 2159823 2160855 2162101 2163366 2164674 2166067 2164799 2157814 2153066 2151249 2150351 2149879 2149510 2149015 2148145 2148242 2148649 2149598 2150402 2151395 2152613 2153702 2153154 2146078 2140277 2137923 2136732 2136111 2135711 2134808 2134043 2134068 2134343 2135274 2136282 2137428 2138543 2139815 2141078 2140770 2133304 2127971 2126384 2125840 2125642 2125509 2124987 2124310 2124520 2125239 2126289 2127693 2128800 2130136 2131605 2133240 2134559 2131191 2125122 2122590 2122242 2122409 2123016 2123003 2122535 2122458 2123345 2124582 2126090 2127557 2128995 2130840 2132478 2132982 2127629 2123236 2122010 2121931 2122490 2123052 2123138 2122956 2123543 2124642 2126097 2127730 2129085 2130876 2132749 2133816 2129569 2123723 2121640 2121227 2121347 2121908 2122121 2122033 2122334 2123259 2124624 2126212 2127905 2129522 2131141 2133032 2133262 2126338 2121034 2119298 2118705 2118218 2118152 2117996 2117792 2118129 2119089 2120421 2121929 2123464 2125035 2126755 2128668 2129398 2122987 2117544 2115740 2115309 2114735 2115075 2115295 2115544 2115934 2116971 2118403 2120082 2121774 2123576 2125507 2127583 2129150 2124753 2119596 2117909 2118093 2118429 2119396 2119760 2119951 2120526 2121687 2123273 2125083 2126955 2128636 2130522 2132691 2134139 2130864 2126507 2125278 2125524 2126500 2127474 2128350 2128662 2129230 2130512 2132288 2134110 2135908 2137893 2139805 2141789 2140975 2136323 2133976 2133798 2134332 2135648 2136447 2137058 2137403 2138385 2140074 2141814 2143468 2145157 2147093 2149091 2148889 2143215 2139740 2138824 2139122 2139586 2140236 2140340 2140608 2141302 2142410 2143917 2145510 2147330 2148888 2150718 2151025 2145480 2140925 2139548 2139344 2139758 2140260 2140433 2140785 2141172 2142148 2143651 2145257 2146831 2148558 2150512 2151586 2147689 2142515 2140732 2140422 2141071 2141751 2142254 2142450 2142919 2144060 2145579 2147300 2149156 2150940 2152857 2154475 2152976 2148140 2145840 2145716 2146449 2147531 2148296 2148516 2148914 2149667 2151034 2152820 2154390 2156272 2158142 2159617 2158015 2153958 2152235 2152366 2153272 2154690 2155320 2155504 2156044 2157111 2158328 2160129 2161926 2163633 2165331 2164415 2159774 2157222 2156706 2157211 2158293 2159227 2159426 2159713 2160279 2161528 2162936 2164682 2166337 2167762 2165773 2159755 2156541 2155713 2155805 2156217 2156419 2156117 2155788 2156145 2157007 2158106 2159413 2160794 2161763 2157915 2151003 2147477 2146511 2146118 2145984 2145619 2144791 2144321 2144499 2145155 2146026 2147075 2148238 2149087 2144963 2137883 2134406 2133233 2132821 2132705 2132157 2131570 2130989 2131149 2131898 2132865 2134080 2135305 2136568 2133398 2126764 2123352 2122507 2122539 2122887 2122922 2122272 2122245 2122641 2123662 2124815 2126111 2127520 2128480 2124627 2118891 2116469 2116100 2116557 2117079 2116998 2116306 2116353 2116873 2117803 2119062 2120563 2122099 2122674 2116864 2111418 2109531 2109330 2109641 2110019 2109770 2109112 2108962 2109731 2110929 2112176 2113590 2115075 2115169 2108001 2102004 2099921 2099338 2099265 2099236 2098648 2097851 2097837 2098599 2099765 2101094 2102365 2103910 2105386 2101620 2093003 2088747 2087222 2086200 2085824 2085332 2084465 2083803 2084189 2085046 2086207 2087702 2089431 2091124 2092951 2090477 2082020 2077736 2076586 2076124 2076157 2076179 2075944 2075909 2076613 2077791 2079510 2081591 2083557 2085648 2087764 2090290 2091623 2085424 2080228 2079016 2079396 2080121 2081010 2081549 2081644 2082394 2083856 2085696 2088064 2090157 2092264 2094482 2096859 2099095 2096691 2091967 2090607 2091186 2092437 2094241 2095195 2095812 2096632 2098168 2100200 2102445 2104623 2106860 2109253 2111625 2111766 2107574 2105120 2105194 2106194 2107843 2109165 2110137 2110846 2112121 2113882 2115993 2118323 2120528 2122787 2125028 2124264 2119370 2116995 2116812 2117714 2118840 2120057 2120586 2121117 2122129 2123738 2125599 2127603 2129511 2131594 2133579 2131737 2125692 2122951 2122797 2123266 2124033 2124848 2125301 2125365 2126161 2127613 2129305 2130947 2132865 2134737 2136524 2135633 2129450 2126186 2125835 2126323 2127192 2127699 2127967 2127978 2128576 2129702 2131155 2132806 2134571 2136269 2138002 2137143 2131568 2128431 2127934 2128551 2129545 2130336 2130551 2130557 2131061 2132223 2133970 2135601 2137467 2138978 2140897 2141010 2136282 2132745 2132147 2132551 2133778 2134616 2134946 2134950 2135478 2136470 2137941 2139615 2141178 2142685 2144234 2143825 2139006 2136164 2135794 2136403 2137440 2138053 2138030 2138070 2138738 2139812 2141185 2142620 2144169 2145651 2145423 2140052 2136131 2135119 2135449 2136271 2136752 2136724 2136208 2136432 2137372 2138551 2139915 2141431 2142701 2141620 2134457 2129748 2128490 2128157 2128166 2128246 2127496 2126435 2126422 2126887 2127611 2128719 2129802 2130791 2130564 2122829 2115891 2113248 2112119 2111069 2110649 2109166 2107658 2106666 2106725 2107095 2107714 2108383 2109364 2110371 2110004 2101346 2093737 2090562 2088892 2087416 2086377 2084924 2083369 2082958 2083267 2084265 2085181 2086369 2087499 2088684 2090169 2091831 2092209 2083554 2076414 2074069 2072908 2071978 2071549 2070661 2069703 2069624 2070432 2071663 2073119 2074649 2075755 2077336 2079094 2081266 2082428 2076219 2070232 2068499 2068203 2068740 2069317 2069080 2068644 2068915 2070225 2072006 2073854 2075622 2077736 2079736 2081844 2084060 2080805 2074161 2071635 2071602 2072169 2073048 2073420 2073202 2073603 2074741 2076483 2078579 2080431 2082360 2084398 2086685 2089106 2089360 2082536 2077561 2076459 2076584 2076673 2077164 2076964 2076995 2077623 2078871 2080502 2082380 2084308 2086251 2088351 2090679 2093087 2092843 2085776 2081336 2080536 2080503 2080641 2081144 2081394 2081563 2082328 2083808 2085759 2087703 2089744 2091981 2094090 2096412 2098925 2101341 2098547 2092638 2090748 2091135 2091997 2093056 2093960 2094255 2094818 2096007 2097849 2099790 2102097 2104185 2106158 2108361 2110767 2113109 2114510 2110547 2106918 2106630 2107422 2108778 2110131 2111181 2111657 2112773 2114260 2116198 2118403 2120445 2122450 2124452 2126718 2128515 2126629 2122553 2121260 2121832 2122994 2124411 2125535 2126220 2126907 2128252 2130097 2132103 2134127 2136149 2138122 2140144 2141261 2137348 2133212 2132091 2132451 2133180 2134422 2135046 2135396 2136087 2137231 2138821 2140576 2142473 2144233 2146095 2147768 2146608 2140675 2137363 2136588 2136896 2137563 2138207 2138418 2138566 2139226 2140261 2141737 2143509 2144999 2146646 2148211 2149218 2144593 2138896 2136799 2136590 2136976 2137323 2137531 2137260 2137297 2137897 2139041 2140400 2141789 2143186 2144558 2146027 2144070 2138005 2134813 2133985 2134333 2134973 2135406 2135194 2134846 2135361 2136403 2137819 2139129 2140424 2141920 2143318 2142408 2136566 2133003 2132233 2132483 2133299 2133550 2133298 2132960 2133365 2134496 2135596 2137002 2138119 2139520 2140733 2137619 2131718 2129244 2129114 2129636 2130356 2130356 2130028 2130018 2130533 2131776 2133005 2134287 2135714 2137270 2136843 2130111 2125002 2123461 2123288 2123350 2123744 2123330 2122693 2122568 2123404 2124485 2125717 2126996 2128303 2129825 2129668 2121687 2115580 2113343 2112457 2112151 2111596 2111011 2110287 2110119 2110599 2111700 2112740 2113863 2115232 2116765 2118032 2113390 2104932 2101164 2099917 2099047 2098636 2098106 2097437 2097152 2097495 2098515 2099994 2101444 2103053 2104593 2106340 2108110 2108916 2101349 2095197 2093440 2093253 2093187 2093225 2093066 2092757 2093112 2094177 2095837 2097555 2099472 2101231 2103211 2105233 2107485 2108470 2102186 2097089 2095962 2096463 2097076 2098094 2098223 2098280 2098919 2100098 2101948 2103804 2105308 2107122 2109121 2111055 2113335 2113411 2107698 2104228 2103964 2104764 2106009 2107236 2107658 2107936 2108887 2110385 2112313 2114176 2116295 2118300 2120332 2122526 2122169 2115947 2112642 2112392 2113041 2114150 2115042 2115505 2115849 2116664 2118307 2120046 2122078 2123879 2125708 2127634 2129507 2127905 2121240 2117955 2117761 2118206 2118908 2119532 2119740 2120163 2120966 2122247 2123951 2125891 2127695 2129463 2131465 2133580 2132996 2127059 2123638 2123472 2124273 2125239 2126273 2126860 2127116 2128080 2129580 2131280 2133210 2135231 2136890 2138825 2140638 2139012 2133705 2131617 2131678 2132743 2133980 2134892 2135286 2135474 2136427 2137850 2139589 2141376 2143144 2144819 2146448 2144333 2138782 2136491 2136576 2137418 2138452 2139006 2138996 2139131 2139948 2141283 2142833 2144504 2145866 2147448 2148564 2143632 2137498 2135192 2134981 2135133 2135518 2135555 2134863 2134769 2135402 2136256 2137479 2138805 2140080 2141447 2142303 2138769 2130815 2126844 2125933 2125399 2124984 2124618 2123747 2123209 2123261 2124087 2125234 2126227 2127391 2128692 2130064 2131281 2125940 2118580 2115649 2115134 2114849 2114967 2114539 2113876 2113620 2114169 2115218 2116527 2117498 2118899 2120307 2121747 2123349 2125181 2122820 2115233 2111522 2111019 2111323 2111854 2111927 2111405 2110969 2111501 2112527 2114135 2115617 2117094 2118684 2120481 2122232 2123187 2117167 2111985 2110766 2111040 2111803 2112658 2112860 2112646 2113041 2114170 2115753 2117510 2119141 2120920 2122639 2124610 2126606 2125595 2117947 2113665 2112965 2113112 2113616 2114145 2114166 2113969 2114614 2115773 2117400 2119113 2120911 2122501 2124386 2126228 2128386 2127811 2120391 2115642 2114699 2114947 2115317 2115624 2115805 2115855 2116367 2117464 2119097 2120782 2122540 2124384 2126287 2128133 2130406 2132372 2129271 2122520 2119979 2120054 2120738 2121608 2122344 2122638 2123031 2123914 2125545 2127237 2128994 2130972 2132682 2134551 2136565 2138752 2138782 2132665 2129080 2128544 2129329 2130296 2131329 2131784 2131984 2132588 2133963 2135476 2137411 2139285 2140989 2142720 2144561 2146398 2145935 2140464 2137350 2137056 2137770 2138969 2139785 2140307 2140532 2141099 2142348 2143809 2145674 2147217 2148962 2150806 2152548 2153863 2151601 2146896 2145022 2145194 2146324 2147507 2148347 2148517 2148902 2149657 2151047 2152580 2154287 2155810 2157278 2158847 2159059 2153940 2150600 2149290 2149503 2150206 2151307 2151400 2151081 2151273 2151999 2153360 2154573 2155979 2157243 2158624 2159049 2153248 2147522 2145654 2145428 2145677 2145958 2145514 2144479 2144171 2144582 2145520 2146346 2147353 2148299 2149286 2149626 2142618 2134704 2131474 2130318 2129315 2128696 2127475 2125842 2125082 2124932 2125438 2126024 2126701 2127425 2128413 2129475 2127823 2118019 2111212 2108588 2106831 2105424 2104241 2102746 2101239 2100598 2100820 2101458 2102375 2103033 2104029 2105211 2106502 2108071 2109578 2104871 2094721 2089847 2088276 2086779 2086023 2085002 2083761 2082869 2083118 2083724 2084852 2086231 2087540 2089080 2090605 2092274 2094292 2096261 2093778 2084800 2080623 2079912 2079745 2079809 2080019 2079248 2078836 2079566 2080710 2082578 2084177 2086050 2087618 2089544 2091506 2093826 2095327 2089279 2083703 2082585 2083127 2083966 2084848 2085022 2084721 2085432 2086851 2088513 2090647 2092558 2094666 2096627 2098756 2101096 2103386 2100600 2093661 2091025 2091314 2091935 2092981 2093678 2093843 2094110 2095311 2096961 2098842 2101133 2103096 2105155 2107280 2109523 2111938 2113784 2108000 2101718 2100252 2100708 2101319 2102118 2102528 2102806 2103230 2104094 2105553 2107454 2109527 2111410 2113383 2115314 2117508 2119863 2122048 2119383 2112156 2109456 2109568 2110306 2111174 2111680 2112073 2112460 2113375 2114876 2116797 2118743 2120619 2122486 2124545 2126561 2128903 2131162 2130441 2123800 2120475 2120306 2121322 2122438 2123424 2123947 2124397 2125497 2127007 2129111 2131128 2133200 2135359 2137284 2139326 2141688 2143449 2140976 2136049 2134754 2135449 2136774 2138307 2139241 2139786 2140499 2141752 2143457 2145443 2147355 2149220 2151263 2153098 2155036 2154518 2150062 2147588 2147498 2148514 2150159 2151389 2151912 2152186 2152963 2154436 2156256 2157938 2159910 2161697 2163306 2163999 2159405 2154952 2153796 2154246 2155474 2156571 2157121 2157047 2157370 2158300 2159783 2161446 2163090 2164698 2166148 2166697 2160894 2154484 2152135 2151811 2152080 2152508 2152524 2151894 2151821 2152246 2153162 2154287 2155597 2156749 2157979 2158931 2153907 2145426 2141562 2140461 2140026 2139771 2139621 2138651 2137707 2137397 2137950 2138655 2139756 2140857 2141981 2143128 2144351 2142667 2133392 2127640 2126154 2125720 2125552 2125427 2124645 2123681 2123478 2124077 2125127 2126291 2127595 2128787 2130015 2131507 2132965 2129024 2122614 2118223 2117441 2117769 2118423 2118758 2118413 2117669 2117820 2118765 2120023 2121405 2122849 2124110 2125727 2127579 2128621 2123557 2116965 2114996 2115126 2115861 2116569 2116778 2116496 2116534 2117463 2118907 2120817 2122399 2123938 2125571 2127558 2129178 2125657 2118500 2115981 2116047 2116630 2117563 2117990 2118003 2117821 2118714 2120105 2121969 2123818 2125575 2127269 2129380 2131333 2130709 2122408 2117508 2116737 2117145 2117703 2118131 2118039 2117530 2117804 2118764 2120397 2122061 2123695 2125304 2126929 2128947 2130832 2130177 2121670 2116576 2115593 2116062 2116344 2116886 2117056 2116676 2116978 2118116 2119546 2121277 2123199 2125021 2126861 2128786 2130976 2131345 2124445 2119443 2118438 2119089 2119991 2120893 2121236 2121255 2121850 2123090 2124724 2126680 2128484 2130604 2132467 2134426 2136745 2138225 2133993 2128823 2127551 2128245 2129672 2131192 2131865 2132133 2132514 2133697 2135450 2137233 2139381 2141168 2142826 2144742 2146897 2147517 2142991 2139465 2138942 2140026 2141629 2143016 2143891 2144107 2144722 2145923 2147826 2149643 2151491 2153226 2154883 2156755 2155014 2149284 2146546 2146337 2147261 2148372 2149303 2149531 2149658 2150362 2151302 2152889 2154483 2156180 2157665 2159126 2159738 2153472 2147516 2145660 2145780 2146185 2146759 2146836 2146198 2146067 2146523 2147294 2148459 2149717 2151029 2152495 2153527 2148036 2139908 2136394 2135672 2135454 2135510 2134930 2133742 2132821 2132939 2133820 2134914 2136050 2137264 2138285 2139871 2138366 2129404 2123727 2122092 2121693 2121650 2121502 2120416 2119367 2119167 2119760 2120848 2122121 2123426 2124678 2126208 2127735 2127156 2118654 2113371 2112331 2112383 2112813 2113119 2112302 2111376 2111562 2112476 2113722 2115059 2116363 2117601 2119124 2120693 2120898 2113674 2108327 2107343 2107640 2108608 2109021 2108418 2107507 2107606 2108563 2109873 2111515 2112795 2114397 2116021 2117607 2114136 2107109 2104263 2104395 2105162 2105996 2106423 2105947 2105759 2106632 2108129 2109924 2111904 2113557 2115409 2117521 2117664 2110026 2104525 2103508 2103727 2104337 2104915 2104697 2104358 2104680 2105730 2107490 2109360 2111084 2112330 2114218 2116247 2118006 2112971 2105209 2102698 2102698 2103036 2103534 2103618 2103294 2103334 2104188 2105587 2107546 2109282 2111243 2113133 2115028 2117440 2118914 2113229 2107233 2106166 2106760 2107782 2108984 2109553 2109692 2110199 2111173 2112942 2114881 2117125 2118990 2121010 2123027 2125363 2127444 2125480 2119489 2117343 2117948 2119293 2120954 2122361 2122768 2123274 2124214 2125982 2128098 2130184 2132329 2134398 2136292 2138501 2138423 2132817 2129491 2129398 2130637 2132226 2133570 2134206 2134631 2135554 2137167 2139142 2141162 2143454 2145443 2147485 2148820 2144829 2139352 2137693 2138185 2139396 2140768 2141493 2141783 2142166 2143309 2144815 2146744 2148859 2150748 2152548 2154412 2152429 2144762 2141258 2140803 2141326 2142256 2143070 2143102 2143121 2143634 2144807 2146385 2148298 2150108 2151660 2153367 2154408 2148830 2142542 2140373 2140536 2141333 2142188 2142733 2142618 2142958 2143738 2145182 2146816 2148753 2150414 2152134 2153961 2154220 2148357 2143522 2142482 2143158 2144189 2145187 2145632 2145418 2145661 2146708 2148239 2149989 2151755 2153378 2155096 2155771 2151101 2145926 2144483 2144813 2146031 2147222 2147534 2147407 2147643 2148465 2149876 2151413 2153313 2154727 2156310 2155676 2148510 2144160 2143200 2143533 2144440 2145191 2145168 2144736 2144904 2146041 2147399 2148862 2150331 2151872 2153302 2149860 2140987 2136937 2136049 2136149 2136478 2136458 2135650 2134946 2134917 2135718 2137004 2138121 2139253 2140623 2141960 2138469 2129329 2124724 2123704 2123352 2123174 2122783 2121817 2120899 2121135 2122064 2123448 2124685 2126087 2127509 2128973 2130419 2125406 2117166 2113953 2113337 2113307 2113596 2113022 2111616 2110959 2111240 2112462 2113675 2114917 2116261 2117467 2119037 2120571 2116606 2108613 2105534 2104978 2105217 2105932 2105727 2104570 2104159 2104701 2106015 2107546 2109075 2110567 2112111 2113985 2115370 2109446 2102411 2100208 2100091 2100495 2101204 2101036 2100296 2100441 2101344 2102726 2104366 2106254 2108010 2109810 2111896 2113998 2113196 2104127 2098953 2097887 2097628 2097742 2097894 2097510 2096912 2097384 2098657 2100168 2101916 2103836 2105657 2107427 2109443 2111568 2113128 2105924 2098960 2096844 2096668 2096615 2097102 2097191 2096931 2097420 2098367 2099841 2101768 2103648 2105629 2107518 2109575 2111815 2114228 2115932 2109628 2103506 2102123 2102589 2103248 2104147 2104662 2104754 2105098 2106238 2108143 2110295 2112466 2114588 2116748 2118929 2121297 2124038 2126024 2123212 2117384 2115871 2116562 2117893 2119519 2120710 2121272 2121937 2123327 2125220 2127295 2129525 2131689 2133807 2135909 2138271 2140008 2137742 2132935 2131732 2132587 2134100 2136038 2137326 2137904 2138887 2140198 2142167 2144406 2146530 2148751 2150823 2152843 2154859 2153536 2147909 2145703 2145893 2147122 2148702 2149909 2150663 2151319 2152339 2154053 2156070 2158224 2160247 2162051 2163872 2165408 2162171 2155730 2153203 2153171 2154127 2155183 2155981 2156214 2156455 2157391 2158640 2160543 2162377 2164192 2165830 2167680 2168203 2162562 2156773 2154995 2155238 2155969 2156889 2157309 2157284 2157428 2158617 2159936 2161588 2163419 2165212 2166903 2168450 2168652 2162791 2157951 2156787 2157425 2158673 2159777 2160416 2160457 2161064 2162102 2163797 2165560 2167292 2168842 2170506 2172115 2170467 2164805 2161914 2161766 2162869 2164325 2165342 2165653 2165743 2166339 2167642 2169321 2171096 2172713 2174417 2175802 2173839 2167797 2165542 2164780 2165553 2167018 2168061 2168419 2168142 2168623 2169703 2171114 2172293 2173289 2174764 2175391 2172309 2166967 2164617 2164467 2165079 2165845 2165984 2165357 2165102 2165503 2166419 2167903 2169428 2171063 2172353 2170804 2162912 2157857 2156273 2156343 2156629 2156828 2156381 2155912 2156039 2156752 2157800 2159118 2160194 2161517 2161692 2154293 2146562 2143972 2143328 2143081 2143227 2142914 2142209 2141517 2141759 2142654 2143639 2144872 2146015 2147363 2148358 2143888 2135147 2131544 2130672 2130779 2130932 2130856 2130234 2129796 2130261 2131447 2132914 2134180 2135703 2137147 2138737 2140070 2135385 2127782 2125125 2124977 2125411 2126022 2126210 2125865 2125557 2126273 2127546 2129338 2130787 2132389 2133904 2135684 2136772 2130986 2125153 2123650 2124057 2125072 2126047 2126270 2126037 2126413 2127339 2129036 2130803 2132559 2134369 2136104 2137743 2134323 2127277 2124706 2124927 2125770 2126948 2127556 2127578 2127740 2128700 2130403 2132148 2134015 2135758 2137735 2139551 2138079 2130120 2126129 2125771 2126380 2127166 2127879 2128227 2128198 2128905 2130321 2132121 2134062 2135889 2137633 2139574 2140854 2134960 2127862 2125834 2125994 2126559 2127241 2127813 2127713 2128087 2128899 2130488 2132319 2134185 2135994 2137765 2139682 2141299 2136541 2129866 2128088 2128270 2129207 2130421 2130998 2131404 2131875 2132933 2134677 2136815 2138733 2140657 2142588 2144694 2146342 2143377 2137719 2136042 2136626 2138035 2139608 2140857 2141373 2142053 2143284 2145097 2147300 2149476 2151566 2153606 2155228 2154177 2149892 2148251 2149008 2150780 2152988 2154188 2154974 2155671 2156949 2158793 2160843 2163173 2165385 2167320 2167403 2163452 2160638 2160287 2161742 2163732 2165332 2166287 2166859 2167734 2169263 2171142 2173353 2175387 2177415 2177392 2172294 2168354 2167429 2168267 2169905 2171320 2171904 2172152 2172737 2173992 2175682 2177556 2179325 2181051 2180431 2173748 2169366 2168488 2168887 2170142 2171079 2171413 2171258 2171568 2172569 2173885 2175536 2177188 2178732 2176178 2168447 2164498 2163594 2164068 2164884 2165104 2164917 2164506 2164644 2165579 2166656 2167863 2169300 2170328 2167451 2159203 2154879 2153963 2154207 2154710 2154640 2153957 2153230 2153246 2153959 2155124 2156090 2157037 2158306 2158347 2150944 2144574 2142619 2142461 2142881 2143331 2142807 2141998 2141793 2142332 2143481 2144512 2145712 2147069 2148220 2147300 2139470 2134884 2133903 2134132 2135004 2135515 2134991 2134168 2134388 2135242 2136731 2138237 2139643 2141214 2142300 2138332 2131152 2128536 2128419 2129304 2130373 2130685 2130101 2129961 2130503 2131870 2133411 2135043 2136671 2138184 2137365 2129111 2124213 2123315 2123526 2124473 2124789 2124486 2123719 2124063 2125229 2126589 2128289 2129956 2131543 2133171 2130470 2120874 2116394 2115496 2115758 2115889 2116070 2115333 2114639 2115285 2116341 2117822 2119520 2121078 2122697 2124460 2125808 2118060 2109486 2106532 2106158 2105858 2105851 2105587 2104978 2105005 2105579 2107076 2108746 2110524 2112054 2113861 2115843 2117764 2113379 2103937 2100274 2099929 2099991 2100449 2100794 2100470 2100636 2101482 2102943 2105065 2107188 2108959 2111130 2113279 2115701 2116587 2108735 2103091 2102360 2103140 2104282 2105633 2106158 2106318 2106981 2108466 2110555 2112894 2115040 2117289 2119424 2121771 2123884 2119977 2113479 2112035 2112826 2114311 2116077 2117222 2117512 2118184 2119579 2121591 2123934 2126320 2128510 2130570 2132951 2132974 2125983 2122316 2122212 2123514 2125189 2126758 2127339 2127864 2128949 2130739 2132898 2135205 2137455 2139579 2141812 2143144 2136796 2130750 2129546 2130465 2131820 2133239 2134166 2134448 2135161 2136391 2138342 2140447 2142717 2144652 2146742 2148656 2146347 2137731 2133871 2133644 2134525 2135627 2136543 2136791 2137013 2137805 2139165 2141040 2143153 2145136 2147116 2149148 2150817 2146678 2139334 2137255 2137720 2139049 2140516 2141434 2141681 2142122 2143106 2144889 2146963 2149205 2151312 2153444 2155534 2156848 2152324 2146389 2144968 2145761 2147428 2149391 2150555 2150929 2151666 2152869 2154796 2156898 2158964 2161243 2163226 2165415 2165282 2159973 2156736 2156558 2158235 2160531 2162429 2163052 2163629 2164584 2166212 2168151 2170397 2172592 2174705 2176470 2174199 2168419 2166319 2166655 2168558 2170556 2171961 2172500 2172877 2173923 2175583 2177694 2179767 2181850 2183694 2182297 2174832 2170804 2170534 2171559 2173004 2174270 2174424 2174484 2175007 2176244 2177941 2179551 2181274 2182774 2181141 2171948 2166811 2165857 2166238 2167087 2167719 2167329 2166775 2166911 2167703 2169115 2170508 2171906 2173280 2171734 2162322 2156747 2155537 2155813 2156330 2156548 2155968 2155228 2155128 2155961 2157045 2158422 2159779 2161294 2162083 2156008 2148034 2145546 2145577 2146379 2147073 2147176 2146390 2146096 2146421 2147430 2148704 2150125 2151510 2152989 2154006 2148828 2141361 2139301 2139615 2140688 2141881 2142045 2141727 2141553 2142471 2143396 2145028 2146687 2148315 2149926 2149506 2141772 2136939 2136175 2136801 2138237 2139301 2139312 2138823 2139287 2140425 2142150 2144008 2145800 2147505 2147609 2139234 2133812 2132849 2133424 2134593 2135494 2135610 2135140 2135607 2136835 2138423 2140228 2142037 2143949 2144878 2136777 2129368 2127458 2127937 2128589 2129412 2129509 2128930 2128943 2130021 2131408 2132771 2134641 2136394 2138392 2136876 2126900 2121554 2120905 2121256 2121952 2122564 2122193 2121881 2122332 2123569 2125370 2127272 2129054 2130948 2132863 2134475 2127513 2119650 2117761 2118481 2119409 2120550 2120969 2120699 2121181 2122192 2123912 2126003 2127998 2130190 2132216 2134453 2136215 2130996 2124168 2122651 2123645 2125228 2126713 2127494 2127792 2128256 2129622 2131489 2133755 2136219 2138265 2140512 2142767 2143773 2137926 2132917 2132330 2133467 2135378 2137057 2138106 2138395 2139194 2140690 2142827 2145172 2147345 2149643 2151788 2152274 2145848 2141291 2140861 2142109 2143759 2145429 2146285 2146661 2147553 2149082 2151108 2153262 2155544 2157570 2159321 2159374 2151378 2145619 2144826 2145508 2146987 2148463 2149195 2149619 2150412 2151837 2153787 2155762 2157835 2159791 2161638 2159991 2151461 2147348 2146908 2147812 2149048 2150123 2150261 2150330 2150987 2152285 2153989 2155891 2157654 2159554 2161311 2159493 2151531 2147879 2147812 2148928 2150329 2151235 2151317 2151483 2152128 2153398 2155157 2157007 2158921 2160682 2162342 2160319 2153302 2150012 2150096 2151057 2152825 2153647 2153584 2153484 2154255 2155664 2157318 2159092 2160897 2162649 2163071 2157101 2151659 2150584 2151380 2152997 2154326 2154660 2154456 2154676 2155815 2157252 2159059 2160802 2162663 2163387 2156763 2150244 2148539 2149128 2150209 2151384 2151644 2151290 2151320 2152039 2153574 2155223 2157005 2158692 2159527 2152241 2144816 2142489 2142808 2143539 2144207 2144327 2143558 2143326 2143858 2145177 2146635 2148284 2149856 2151184 2145757 2136496 2132906 2132504 2132918 2133477 2133210 2132318 2131737 2132193 2133391 2134752 2136421 2137829 2139384 2140774 2136221 2127206 2123868 2123675 2124226 2124910 2124918 2123995 2123634 2124430 2125757 2127372 2128998 2130594 2132192 2133936 2135800 2132358 2124081 2121328 2121488 2122678 2123842 2124494 2124251 2123910 2124612 2126152 2127988 2129968 2131912 2133524 2135519 2137629 2138549 2131868 2127465 2127163 2128294 2129894 2131247 2131775 2131539 2132202 2133754 2135783 2137718 2139838 2141829 2143842 2145615 2141857 2136011 2134561 2135535 2137117 2138766 2139608 2139647 2140219 2141211 2143190 2145218 2147546 2149627 2151665 2152399 2145844 2140772 2140096 2141158 2142636 2143998 2144528 2144586 2145153 2146504 2148305 2150247 2152233 2154198 2155938 2153515 2144943 2141347 2141254 2142019 2143067 2143558 2143395 2143149 2143496 2144842 2146419 2148067 2149812 2151365 2152818 2148746 2140188 2137015 2136794 2137404 2138091 2138126 2137284 2136862 2137447 2138615 2140029 2141528 2143002 2144423 2145954 2145866 2137869 2132217 2131018 2131526 2132259 2132875 2132404 2131688 2131940 2133020 2134586 2136101 2137666 2139173 2140477 2142182 2142360 2134826 2129959 2129326 2130221 2131400 2132287 2131876 2131217 2131714 2132894 2134603 2136253 2137848 2139334 2140904 2142757 2141139 2133817 2130363 2130546 2131559 2132940 2133718 2133519 2133100 2133899 2135375 2137240 2139089 2140824 2142577 2144386 2144117 2136727 2132419 2132013 2132939 2134208 2135025 2134885 2134616 2135113 2136478 2138195 2140196 2141832 2143698 2145588 2146794 2140346 2133648 2132193 2132684 2133485 2134259 2134471 2134000 2134130 2135172 2136724 2138638 2140237 2141876 2143536 2145242 2145589 2137736 2132152 2131265 2131715 2132441 2133096 2132914 2132503 2132916 2134077 2135773 2137557 2139185 2140801 2142475 2144370 2144999 2137981 2132738 2132212 2133021 2134001 2134754 2134836 2134560 2134859 2135786 2137482 2139343 2141118 2142922 2144733 2146715 2148337 2144784 2138971 2137612 2138635 2140120 2141650 2142566 2142656 2142951 2144078 2145977 2147909 2149944 2151900 2153734 2155671 2157885 2157875 2152508 2150090 2150728 2152372 2154393 2155950 2156653 2156867 2158077 2159470 2161689 2163691 2165677 2167662 2169641 2171229 2168533 2164299 2163559 2164886 2166717 2168705 2169808 2170165 2170833 2172098 2173980 2176046 2178096 2180078 2181974 2183161 2179121 2174644 2174126 2175290 2176850 2178319 2179308 2179355 2179821 2180990 2182520 2184346 2186104 2187831 2189327 2188602 2182028 2178556 2178491 2179450 2180610 2181370 2181207 2180933 2181175 2182189 2183533 2184903 2186117 2187583 2188341 2183306 2177493 2175885 2176264 2176891 2177671 2177475 2176763 2176570 2177246 2178245 2179471 2180628 2181821 2182967 2181969 2175169 2171429 2171051 2171712 2172497 2172954 2172026 2171056 2171203 2172156 2173149 2174395 2175394 2176537 2176737 2170624 2165508 2164492 2164834 2165727 2166307 2165742 2164433 2164263 2164901 2165937 2166989 2168241 2169333 2169638 2162850 2157011 2155666 2155875 2156684 2157130 2156415 2155048 2154835 2155533 2156475 2157843 2158950 2159996 2160299 2152464 2145664 2143796 2143860 2144075 2144014 2143193 2141861 2141576 2142131 2143227 2144175 2145305 2146465 2147497 2141488 2132692 2129137 2128645 2128289 2128266 2127640 2126503 2126124 2126770 2127834 2129230 2130598 2132032 2133467 2134741 2128081 2120390 2118140 2118411 2118785 2119341 2119293 2118572 2118996 2120083 2121718 2123541 2125228 2127158 2128982 2130887 2129053 2121533 2118234 2118646 2119746 2121063 2121745 2121423 2121441 2122361 2124237 2126096 2127965 2129868 2131813 2133592 2130764 2124497 2122372 2123276 2124630 2126277 2127217 2126938 2127043 2128065 2129681 2131790 2133765 2135828 2137774 2139417 2135139 2129085 2127720 2128815 2130117 2131466 2132146 2131949 2132494 2133649 2135504 2137730 2139677 2141755 2143830 2143682 2136693 2132328 2132284 2133285 2134591 2135894 2136204 2136364 2137044 2138477 2140391 2142350 2144402 2146398 2148407 2146203 2139558 2137045 2137726 2138973 2140334 2141282 2141689 2141920 2143132 2144999 2146991 2149247 2151387 2153558 2155384 2152657 2147403 2146400 2147478 2149178 2151104 2152396 2152743 2153498 2154738 2156407 2158561 2160854 2163085 2165217 2164609 2159787 2157847 2158465 2160328 2162476 2164110 2164684 2165206 2166120 2167759 2169708 2171777 2173857 2175537 2172706 2167315 2165863 2166641 2168276 2169862 2170971 2170871 2171201 2172138 2173710 2175340 2177338 2179193 2177305 2170152 2166603 2166560 2167457 2168683 2169258 2168912 2168437 2168746 2169707 2171097 2172645 2174166 2173575 2165712 2160623 2159723 2160127 2160829 2161473 2160698 2159874 2159870 2160496 2161599 2162947 2164246 2164640 2157406 2151015 2149438 2149622 2150399 2150835 2150202 2148947 2148662 2149259 2150253 2151540 2152932 2153687 2147808 2140270 2137922 2138108 2138693 2139265 2138614 2137274 2136808 2137236 2138322 2139570 2141033 2141748 2135342 2128751 2126802 2127330 2128308 2129200 2129059 2128084 2128254 2129033 2130351 2131881 2133613 2135074 2130614 2123628 2121682 2122440 2123957 2125302 2125752 2125090 2125328 2126449 2128008 2129955 2131952 2133790 2131629 2124713 2122182 2122794 2124469 2126047 2126784 2126279 2126365 2127482 2129057 2130985 2133166 2135237 2133756 2126376 2123208 2123888 2125362 2127171 2128145 2127843 2127994 2129007 2130716 2132834 2134818 2137056 2135881 2128074 2124225 2124462 2125830 2127357 2128361 2128041 2127863 2128753 2130374 2132292 2134185 2136169 2137167 2131803 2124605 2122656 2123116 2124117 2125125 2125255 2124734 2125003 2126257 2127851 2129516 2131276 2133320 2133382 2125457 2120046 2119320 2120300 2121300 2122100 2121881 2121662 2122367 2123905 2125781 2127641 2129707 2131557 2133721 2131902 2124337 2121066 2121814 2123118 2124596 2125390 2125067 2125271 2126246 2128049 2130073 2132056 2134021 2136018 2138031 2134908 2128978 2127304 2128496 2130250 2132173 2133075 2132887 2133367 2134608 2136384 2138456 2140575 2142659 2144684 2143663 2137040 2134422 2135217 2136826 2138635 2139800 2140080 2140171 2141295 2142919 2144411 2146511 2148671 2150704 2149625 2142138 2138612 2138918 2140246 2141840 2143048 2143035 2142905 2143737 2145032 2146978 2148989 2150780 2152778 2150043 2142127 2139053 2139390 2140590 2142093 2142904 2142688 2142645 2143436 2144837 2146551 2148432 2150580 2152309 2148850 2141859 2139559 2140424 2141780 2143477 2144522 2144711 2144851 2145771 2147328 2149338 2151258 2153337 2155086 2152621 2146042 2144065 2144885 2146481 2148460 2149508 2149692 2149959 2150779 2152365 2154347 2156490 2158481 2160033 2155010 2149639 2148849 2149798 2151600 2153421 2154109 2153974 2154087 2155207 2156891 2158645 2160768 2162540 2160221 2152847 2150169 2150332 2151542 2153036 2154140 2153793 2153588 2154227 2155500 2157197 2158983 2160692 2160613 2152410 2147140 2146530 2147344 2148485 2149317 2149112 2148510 2148553 2149616 2151014 2152642 2154157 2155659 2149355 2140900 2138361 2138382 2138930 2139667 2139395 2138170 2137915 2138530 2139655 2141082 2142628 2144142 2144354 2135739 2129141 2127603 2128027 2128690 2128937 2127991 2127156 2127043 2127902 2129133 2130671 2132046 2133502 2134006 2126630 2119794 2118138 2118508 2119190 2119608 2118821 2117929 2118228 2119300 2120681 2122326 2124128 2125754 2127381 2124052 2116482 2113682 2114120 2115105 2116467 2116785 2115930 2115896 2116978 2118542 2120060 2121646 2123302 2125226 2126052 2119672 2114634 2114365 2115505 2117132 2118448 2118312 2117853 2118511 2119980 2121752 2123855 2125830 2127895 2129721 2125886 2119652 2118092 2119113 2120803 2122592 2123306 2122930 2123272 2124650 2126474 2128707 2130656 2132821 2134949 2134461 2127031 2122350 2122278 2123500 2124881 2125861 2126315 2126189 2126614 2127960 2129771 2131807 2133752 2135738 2137828 2136998 2128878 2124460 2124379 2125433 2126516 2127508 2127388 2127274 2128065 2129474 2131324 2133253 2135237 2137300 2139282 2139653 2132318 2127885 2127680 2128908 2130348 2131458 2131869 2131835 2132496 2134065 2136037 2138124 2140398 2142502 2144696 2146068 2140569 2136142 2135959 2137267 2139306 2141056 2142142 2142459 2143245 2144662 2146731 2148857 2151155 2153361 2155710 2156650 2151790 2148402 2148203 2149650 2151606 2153479 2154362 2154599 2155448 2156773 2158818 2161061 2163068 2165000 2166798 2163145 2157877 2156511 2157429 2159083 2160837 2161838 2162039 2162477 2163573 2165342 2167097 2169191 2171191 2172184 2166321 2160687 2159407 2160034 2161394 2162739 2163320 2163213 2163153 2163835 2165056 2166586 2168320 2170112 2170802 2163576 2156675 2154879 2155195 2155934 2156756 2156635 2155708 2155359 2155860 2156981 2158323 2159782 2161305 2160605 2151975 2145988 2144685 2144888 2145643 2145956 2145169 2144107 2143987 2144664 2146016 2147269 2148766 2150141 2149952 2141997 2136250 2135067 2135587 2136443 2137136 2136337 2135277 2135283 2135995 2137289 2138742 2140229 2141846 2142510 2135613 2129471 2128217 2128737 2129993 2130974 2130533 2129473 2129429 2130277 2131626 2133451 2135145 2136770 2137676 2130525 2124443 2123168 2123746 2124942 2125992 2125666 2124726 2124882 2125842 2127374 2129246 2130847 2132826 2133944 2127391 2119932 2117735 2118018 2118742 2119493 2119253 2118329 2118233 2119131 2120566 2122364 2124184 2125923 2127707 2125605 2115910 2110874 2110163 2110403 2110912 2111035 2110336 2109900 2110551 2111808 2113463 2115112 2117061 2118779 2120873 2121229 2112703 2106854 2105790 2106239 2107285 2107910 2107958 2107835 2108664 2110248 2112569 2114874 2117007 2119289 2121617 2123775 2125469 2119435 2113821 2112799 2113985 2115616 2116986 2117653 2117645 2118310 2119941 2122076 2124190 2126674 2128618 2130939 2133439 2135231 2130019 2125061 2124368 2125555 2127308 2129067 2130027 2130285 2131054 2132383 2134432 2136675 2138895 2141075 2143153 2145148 2142912 2136661 2134594 2135068 2136544 2138365 2139660 2140154 2140669 2141906 2143589 2145673 2147967 2150070 2152224 2154413 2153553 2146359 2142136 2141788 2142936 2144370 2145648 2146284 2146493 2147220 2148611 2150544 2152488 2154566 2156698 2158643 2159775 2153980 2147867 2146744 2147349 2148495 2149988 2150813 2150989 2151490 2152481 2154123 2156081 2158124 2160161 2162189 2163865 2161520 2154843 2151833 2151904 2153086 2154633 2155670 2156164 2156388 2157363 2158869 2160649 2162641 2164734 2166665 2168613 2168484 2162679 2159102 2158705 2159817 2161526 2163043 2163849 2164331 2165122 2166715 2168545 2170554 2172756 2174764 2176663 2176532 2171475 2168298 2168160 2169251 2171261 2172828 2173372 2173893 2174687 2175919 2177845 2179671 2181618 2183555 2184642 2180503 2175872 2174416 2175007 2176513 2178141 2179072 2179254 2179595 2180532 2182050 2183806 2185641 2187420 2188022 2182168 2176416 2174702 2174884 2176098 2177188 2177456 2177195 2177278 2177943 2179124 2180571 2182139 2183606 2182604 2174322 2168426 2166658 2166737 2167222 2167664 2167161 2166093 2165884 2166390 2167301 2168740 2170142 2171359 2169876 2160685 2154982 2153414 2153273 2153676 2153853 2152901 2151900 2151746 2152293 2153415 2154763 2156232 2157730 2158474 2151523 2144799 2142901 2143141 2143930 2144818 2144471 2143699 2143542 2144041 2145314 2146840 2148477 2150135 2151767 2152920 2147102 2140632 2138710 2138898 2139989 2140992 2140669 2139790 2139533 2140466 2141908 2143388 2144853 2146703 2148417 2149036 2142324 2136709 2135356 2135951 2136891 2137776 2137635 2137079 2137118 2138106 2139556 2141164 2142993 2144599 2146451 2146817 2139471 2133296 2131453 2131582 2132090 2132688 2132317 2131774 2131733 2132762 2134221 2136048 2137787 2139473 2141269 2142803 2137367 2129978 2127193 2126933 2127117 2127916 2127889 2127478 2127411 2128290 2129732 2131554 2133414 2135256 2137242 2139371 2140718 2135044 2128621 2127038 2127312 2128369 2129504 2130125 2130061 2130473 2131937 2133670 2135858 2138073 2140190 2142331 2144614 2146696 2145284 2139166 2136469 2136858 2138149 2139854 2141264 2141876 2142365 2143544 2145281 2147460 2149633 2151594 2153773 2155658 2157762 2156590 2151007 2148529 2148709 2150010 2151825 2153400 2154090 2154719 2155789 2157413 2159392 2161463 2163483 2165450 2167410 2167413 2161988 2158382 2157876 2158843 2160407 2161886 2162730 2163239 2164149 2165547 2167145 2169194 2171179 2173150 2174844 2174542 2167869 2163093 2162542 2162971 2164293 2165406 2165880 2166042 2166541 2167529 2169116 2170803 2172512 2174293 2175973 2176041 2169594 2164259 2163026 2163273 2164396 2165364 2165952 2165967 2166351 2167409 2168884 2170454 2171997 2173848 2175287 2175697 2170076 2165151 2163955 2164475 2165654 2166756 2167083 2167126 2167422 2168475 2169849 2171244 2172820 2174439 2175945 2174501 2168252 2164963 2164595 2165296 2166695 2167598 2167824 2167671 2168168 2169373 2170869 2172305 2173997 2175535 2174732 2167859 2163532 2162492 2163109 2164150 2165073 2164956 2164790 2164866 2165963 2167145 2168768 2170054 2171660 2171617 2163948 2157703 2155915 2155979 2156570 2157038 2156837 2156135 2155984 2156691 2157846 2159257 2160680 2162208 2163637 2160405 2151220 2146805 2145750 2145729 2146105 2146178 2145405 2144614 2144616 2145610 2146798 2148219 2149837 2151305 2152902 2152379 2143927 2137820 2135984 2135853 2136143 2136468 2135772 2134777 2134847 2135637 2136961 2138423 2139959 2141714 2143090 2144801 2146455 2145213 2136561 2131554 2130657 2131054 2131901 2132367 2131844 2131369 2131759 2132610 2134315 2136265 2138005 2139689 2141536 2143496 2144257 2137910 2132792 2131733 2132402 2133632 2134787 2135389 2135398 2136109 2137274 2139069 2141035 2143099 2145153 2147166 2149399 2150331 2145075 2141103 2140797 2141956 2143675 2145368 2146158 2146600 2147607 2149099 2151130 2153189 2155281 2157361