2168864 2168672 2168381 2168372 2168642 2168889 2169044 2169312 2169635 2169927 2171168 2169925 2170042 2170209 2168856 2166755 2165273 2161642 2158202 2151963 2147178 2142751 2142549 2143288 2144780 2146043 2149588 2150786 2150062 2151280 2152156 2153691 2154265 2154411 2154763 2155142 2155855 2155937 2156237 2156363 2157247 2157496 2157881 2157866 2158252 2159474 2159194 2158928 2157334 2156524 2157373 2153570 2155383 2149503 2150648 2156089 2160036 2157594 2155310 2147217 2133691 2122732 2123792 2129841 2133155 2134279 2135483 2136606 2136639 2137617 2139376 2140048 2138976 2137754 2136525 2135543 2134417 2134448 2134669 2134794 2134932 2135098 2134942 2134823 2134400 2133488 2131692 2129646 2127929 2126907 2126086 2125743 2125435 2125289 2124816 2124431 2124226 2123915 2123907 2123890 2123692 2123949 2123884 2124096 2124309 2124266 2123306 2121321 2119704 2118269 2117343 2116692 2116375 2116362 2116458 2116244 2115991 2115803 2115783 2115876 2116211 2116222 2116508 2116829 2117137 2117592 2117863 2118044 2117174 2115242 2113203 2112036 2111372 2111125 2111160 2111402 2111445 2111393 2111257 2111205 2111258 2111572 2111719 2112219 2112585 2113006 2113434 2113756 2114228 2113341 2111264 2109278 2108067 2107371 2107246 2107233 2107646 2107843 2107540 2107505 2107467 2107591 2107812 2108322 2108609 2108945 2109466 2109907 2110466 2109772 2107663 2105188 2103499 2102530 2102004 2102120 2102142 2102550 2102665 2102574 2102533 2102734 2102975 2103488 2103895 2104515 2105018 2105493 2106153 2106663 2107013 2105838 2103351 2100592 2099227 2098527 2098164 2098248 2098597 2098999 2099080 2099032 2099002 2099339 2099816 2100281 2100840 2101425 2102065 2102574 2103392 2103982 2104758 2105277 2103772 2101118 2098691 2097416 2096720 2096658 2097266 2097679 2098206 2098259 2098460 2098638 2098977 2099387 2100050 2100633 2101194 2101874 2102579 2103412 2103915 2104237 2102179 2099731 2098017 2096943 2096826 2096987 2097572 2098241 2098625 2098595 2098716 2098808 2099265 2099597 2100465 2100873 2101588 2102186 2102918 2103635 2102672 2099951 2097579 2096079 2095520 2095274 2095607 2096352 2096691 2096872 2097038 2096984 2097441 2098045 2098476 2099198 2099727 2100512 2101124 2101914 2102451 2102967 2101689 2098781 2096245 2094788 2094268 2094196 2094222 2094911 2095455 2095491 2095612 2095690 2096206 2096619 2097234 2097928 2098522 2099284 2100048 2100609 2101441 2102036 2102326 2100374 2097475 2095195 2094127 2093578 2093716 2093976 2094470 2094966 2095041 2095310 2095485 2096039 2096545 2097273 2097979 2098771 2099612 2100250 2100982 2101812 2102399 2102763 2100804 2098039 2096138 2095442 2095108 2095224 2095914 2096720 2096891 2097008 2097157 2097171 2097672 2098275 2098809 2099503 2100150 2100733 2101629 2102301 2102321 2100456 2097820 2095970 2095148 2094926 2095023 2095474 2096162 2096532 2096800 2096876 2097128 2097586 2098142 2098830 2099456 2100256 2100783 2101506 2102247 2102952 2102037 2099406 2096662 2095297 2094638 2094201 2094566 2095050 2095533 2095794 2095998 2096133 2096486 2097020 2097750 2098450 2099082 2099753 2100539 2101322 2102023 2102609 2102939 2101201 2098408 2096461 2095278 2095117 2095043 2095688 2096265 2097035 2097152 2097336 2097778 2098285 2098845 2099592 2100317 2101028 2101962 2102615 2103358 2104104 2104855 2104953 2103146 2100784 2099482 2098539 2098587 2098898 2099553 2100343 2100615 2100750 2100882 2101137 2101567 2102282 2102636 2103410 2104017 2104789 2105407 2105993 2106157 2104257 2101942 2100288 2099454 2099297 2099413 2099969 2100597 2101016 2100950 2101234 2101402 2101857 2102425 2103049 2103672 2104392 2104988 2105484 2106323 2106755 2105904 2103463 2100991 2099610 2099011 2098940 2099058 2099708 2100235 2100344 2100529 2100593 2100986 2101428 2101958 2102666 2103143 2103902 2104615 2105272 2106110 2106643 2107217 2106707 2104274 2101906 2100385 2099706 2099513 2099837 2100534 2100974 2101459 2101310 2101509 2101818 2102201 2102847 2103375 2104008 2104776 2105556 2106051 2106823 2107487 2107927 2106681 2104358 2102262 2101276 2100955 2100945 2101358 2102094 2102519 2102662 2102571 2102759 2102905 2103359 2104079 2104653 2105192 2105751 2106421 2106986 2107676 2106852 2104419 2101938 2100593 2099755 2099520 2099740 2100307 2100747 2101067 2101219 2101306 2101531 2102099 2102699 2103109 2103657 2104559 2105246 2105880 2106471 2107020 2107693 2106272 2103700 2101235 2100003 2099309 2099249 2099514 2100100 2100690 2100897 2101008 2101329 2101636 2102235 2102760 2103380 2104243 2104953 2105540 2106235 2107088 2107757 2108363 2108666 2106845 2104455 2102598 2101611 2101517 2101789 2102125 2102876 2103402 2103435 2103758 2103850 2104106 2104852 2105150 2105871 2106490 2107104 2107694 2108483 2109098 2107907 2105548 2103401 2102494 2101819 2102110 2102312 2103245 2103547 2103765 2103855 2104004 2104353 2104963 2105281 2106031 2106480 2107143 2107825 2108465 2109127 2109590 2109546 2107272 2104599 2102976 2102015 2101631 2102013 2102555 2103198 2103544 2103790 2103870 2104180 2104382 2104845 2105516 2105892 2106832 2107328 2107867 2108645 2109364 2110112 2110852 2111160 2109146 2106640 2104864 2103843 2103382 2103446 2103858 2104502 2105013 2105065 2105354 2105532 2105664 2106186 2106649 2107506 2108036 2108594 2109313 2110065 2110741 2110786 2109004 2106715 2104885 2104306 2103875 2103914 2104527 2104989 2105543 2105682 2105757 2105709 2106204 2106761 2107306 2107688 2108515 2108980 2109624 2110126 2110862 2111062 2109291 2106519 2104420 2103340 2102893 2102734 2103155 2103906 2104357 2104369 2104726 2105052 2105374 2105942 2106442 2107075 2107820 2108383 2109096 2109767 2110433 2111083 2111350 2109537 2107066 2105020 2104162 2103829 2103649 2104224 2104900 2105346 2105572 2105699 2105802 2106193 2106474 2107129 2107690 2108215 2108882 2109503 2110211 2110617 2109466 2107064 2104988 2103889 2103514 2103368 2103740 2104593 2105026 2105275 2105411 2105660 2105864 2106525 2106972 2107673 2108406 2108971 2109743 2110457 2111115 2111480 2110160 2107635 2105531 2104330 2103947 2103883 2104390 2104992 2105631 2105810 2106112 2106286 2106764 2107286 2107883 2108631 2109457 2110106 2110749 2111534 2112195 2112893 2113201 2111698 2109372 2107407 2106679 2106327 2106514 2107015 2107575 2108048 2108151 2108212 2108298 2108667 2109123 2109710 2110253 2111047 2111516 2112137 2112734 2113041 2111427 2108777 2107075 2106160 2105687 2105761 2106120 2106623 2106958 2106861 2107056 2107181 2107520 2107908 2108398 2108792 2109712 2110256 2110842 2111540 2112077 2112672 2112023 2109528 2106873 2105330 2104568 2104332 2104463 2105072 2105905 2106099 2106193 2106454 2106851 2107290 2107888 2108372 2109192 2109833 2110555 2111173 2111784 2112563 2112868 2111286 2108908 2107065 2106160 2105787 2105879 2106336 2106904 2107458 2107432 2107714 2107732 2108179 2108403 2109043 2109598 2110116 2110761 2111364 2112119 2111847 2109777 2107479 2105883 2105120 2104739 2104979 2105612 2106262 2106427 2106499 2106885 2107125 2107638 2108066 2108682 2109268 2109957 2110536 2111215 2111738 2112601 2111685 2109306 2106738 2105365 2104789 2104520 2104733 2105487 2106092 2106469 2106585 2106723 2107218 2107672 2108384 2108858 2109673 2110390 2111123 2111689 2112480 2113079 2113613 2112220 2109696 2107768 2106727 2106376 2106357 2106791 2107484 2108071 2108064 2108087 2108324 2108475 2108856 2109443 2110107 2110674 2111373 2111920 2112525 2112766 2110481 2107969 2106222 2105121 2104781 2104844 2105492 2105896 2106358 2106421 2106556 2106641 2106992 2107479 2108202 2108582 2109366 2110054 2110656 2111287 2111916 2111755 2109213 2106611 2104852 2103764 2103364 2103441 2103953 2104645 2105009 2105133 2105453 2105688 2106324 2107015 2107428 2108197 2108721 2109742 2110496 2111128 2111910 2111910 2109801 2107215 2105602 2104759 2104654 2104867 2105527 2106094 2106424 2106576 2106712 2106830 2107271 2107774 2108516 2108982 2109634 2110381 2110977 2111391 2109729 2106972 2104932 2103889 2103436 2103424 2103911 2104582 2105143 2105208 2105388 2105564 2106130 2106610 2107260 2107961 2108569 2109316 2110093 2111018 2111410 2109165 2106450 2104363 2103642 2103218 2103278 2103829 2104425 2104974 2105222 2105437 2105714 2106131 2106805 2107520 2108040 2108686 2109502 2110188 2110449 2108402 2105858 2104106 2103210 2103118 2103306 2103867 2104546 2105165 2105255 2105655 2106043 2106478 2107307 2108026 2108743 2109532 2110480 2111106 2111244 2109465 2107104 2105593 2105052 2105034 2105265 2105923 2106768 2107410 2107339 2107772 2108116 2108574 2109271 2109977 2110671 2111362 2112130 2112742 2112654 2110478 2108156 2106762 2106200 2106097 2106477 2107165 2107815 2108191 2108231 2108431 2108638 2109313 2109616 2110420 2111219 2111613 2112439 2112979 2113627 2113103 2110408 2107894 2106246 2105578 2105301 2105518 2105995 2106591 2106853 2107031 2107083 2107449 2107869 2108441 2109105 2109737 2110480 2111110 2111906 2112733 2113290 2113975 2113277 2110847 2108073 2106762 2106104 2106129 2106326 2107021 2107946 2108038 2108141 2108330 2108770 2109205 2109719 2110292 2110891 2111530 2112355 2112940 2113585 2114114 2112746 2110308 2108295 2107137 2106885 2106966 2107616 2108224 2108718 2109031 2109111 2109430 2109532 2110098 2110899 2111353 2111935 2112795 2113240 2113965 2114653 2115150 2114748 2112321 2109694 2107985 2107520 2107302 2107632 2108283 2108837 2109254 2109544 2109697 2109954 2110461 2110894 2111576 2112238 2112960 2113541 2114269 2114910 2115404 2116114 2116768 2117380 2115934 2113579 2111422 2110340 2110015 2110062 2110352 2111016 2111858 2112161 2112305 2112600 2112814 2113359 2113797 2114540 2115135 2115766 2116370 2117133 2117742 2118319 2118918 2118399 2116233 2114216 2112936 2112453 2112378 2112935 2113566 2114115 2114388 2114403 2114490 2114894 2115138 2115490 2116057 2116601 2117024 2117732 2118376 2118854 2119477 2118603 2116098 2113811 2112371 2111674 2111503 2111675 2112244 2112873 2113006 2113100 2113001 2113285 2113634 2114071 2114462 2115201 2115742 2116165 2116754 2117357 2117812 2118400 2118966 2118478 2116149 2113653 2111932 2111092 2110910 2110969 2111581 2112214 2112456 2112713 2112767 2112876 2113061 2113527 2114069 2114604 2115322 2116019 2116633 2117184 2117802 2118370 2118921 2119427 2118682 2116340 2113850 2112572 2112031 2112092 2112393 2112771 2113298 2113554 2113640 2113543 2113748 2114078 2114454 2114897 2115467 2116058 2116475 2117035 2117668 2118195 2118579 2116829 2114023 2112038 2111174 2110537 2110300 2110934 2111519 2111964 2112007 2112010 2112254 2112656 2113056 2113559 2114036 2114725 2115312 2115906 2116602 2117042 2117734 2118383 2118919 2118670 2116317 2113520 2111860 2111255 2110981 2111184 2111629 2112268 2112629 2112756 2112865 2113203 2113526 2114041 2114714 2115259 2115905 2116562 2117193 2117890 2118549 2119036 2119765 2120394 2119973 2117728 2115412 2114207 2113571 2113568 2113811 2114477 2114964 2115010 2115089 2115256 2115437 2115731 2115997 2116604 2117222 2117702 2118385 2118941 2119535 2119897 2120197 2118273 2115892 2113893 2113115 2112747 2112507 2113110 2113657 2113980 2113977 2114022 2114081 2114400 2114781 2115231 2115834 2116433 2117025 2117593 2118119 2118766 2119364 2119592 2118655 2116018 2113508 2112071 2111481 2111201 2111290 2111741 2112191 2112176 2112041 2112121 2112334 2112604 2113021 2113614 2114122 2114543 2115273 2115845 2116522 2117048 2117667 2117162 2114529 2112114 2110279 2109551 2109260 2109345 2109873 2110447 2110657 2110588 2110742 2110980 2111257 2111795 2112366 2113098 2113686 2114302 2115088 2115790 2116305 2116898 2116806 2114520 2111803 2110293 2109610 2109453 2109615 2110262 2110817 2111029 2110823 2111002 2111117 2111481 2111932 2112536 2113160 2113725 2114380 2115044 2115677 2116129 2116048 2113577 2111001 2109143 2108192 2107982 2107950 2108498 2109116 2109371 2109181 2109235 2109515 2109926 2110335 2111020 2111833 2112341 2113206 2113879 2114517 2115285 2115977 2116385 2114067 2111317 2109103 2107992 2107464 2107568 2108245 2108679 2108956 2109155 2109216 2109429 2109720 2110581 2111078 2111865 2112724 2113560 2114227 2115011 2115728 2116475 2117040 2117366 2115227 2112693 2110816 2110069 2110006 2110109 2110729 2111365 2111660 2111511 2111788 2112111 2112443 2113056 2113480 2114205 2114866 2115419 2116138 2116758 2117480 2118024 2117482 2114871 2112528 2111239 2110815 2110728 2111029 2111776 2112236 2112363 2112461 2112704 2113064 2113548 2114107 2114776 2115230 2116065 2116778 2117447 2118031 2118998 2119450 2120110 2118437 2115891 2114086 2113212 2113025 2113187 2113652 2114322 2114689 2114927 2115190 2115556 2116104 2116552 2117293 2118043 2118919 2120027 2120534 2121465 2122301 2122869 2123796 2124218 2124241 2122316 2120033 2118456 2117648 2117574 2117804 2118437 2119088 2119133 2119109 2119203 2119302 2119427 2119990 2120556 2121098 2121703 2122141 2122766 2123371 2123997 2124414 2122763 2120491 2118520 2117495 2117162 2116959 2117439 2118009 2118295 2118612 2118756 2118753 2119199 2119534 2120022 2120590 2121148 2121803 2122285 2123058 2123621 2124049 2124597 2123634 2121335 2118933 2117706 2117196 2117026 2117324 2117929 2118397 2118899 2118764 2118947 2119381 2119554 2120157 2120659 2121376 2121910 2122651 2123090 2123856 2124594 2124774 2123738 2121353 2119416 2118312 2118024 2118133 2118623 2119240 2119691 2119736 2119758 2119819 2120125 2120425 2120669 2121356 2121873 2122341 2122861 2123328 2123901 2123803 2121900 2119185 2117536 2116813 2116375 2116639 2116899 2117560 2117952 2117991 2118172 2118277 2118602 2119166 2119637 2120120 2120808 2121181 2122103 2122498 2123263 2123659 2123428 2121105 2118570 2116957 2116309 2116094 2116398 2116941 2117572 2117888 2117978 2118115 2118302 2118874 2119233 2119818 2120562 2121083 2121822 2122361 2123015 2123656 2124224 2124426 2122771 2120360 2118770 2118072 2118081 2118261 2118823 2119590 2119795 2119865 2119941 2120055 2120448 2120668 2121267 2121943 2122367 2123027 2123612 2124056 2124707 2124841 2122680 2120354 2118785 2118153 2117894 2117956 2118571 2119175 2119425 2119363 2119553 2119779 2119870 2120558 2121113 2121459 2122110 2122676 2123137 2123863 2124343 2125019 2125011 2123328 2120874 2118842 2117874 2117620 2117571 2118011 2118511 2118988 2119098 2119133 2119221 2119479 2119956 2120599 2121222 2121706 2122329 2123032 2123569 2124162 2124664 2125126 2125137 2123106 2120904 2119383 2118654 2118742 2118917 2119545 2119995 2120261 2120089 2120163 2120224 2120435 2120982 2121392 2121836 2122537 2123156 2123513 2123949 2124395 2124680 2122525 2119997 2118228 2117621 2117297 2117409 2117937 2118283 2118673 2118483 2118746 2118658 2119037 2119366 2120003 2120482 2121162 2121586 2122331 2122794 2123482 2123924 2124428 2123821 2121632 2118856 2117238 2116586 2116355 2116338 2117132 2117652 2117745 2117818 2118014 2118103 2118489 2118995 2119563 2120105 2120752 2121472 2122162 2122578 2123017 2123784 2124300 2123562 2121303 2119054 2117862 2117440 2117477 2117869 2118423 2118990 2119003 2118957 2119140 2119194 2119655 2120070 2120597 2121200 2121823 2122300 2122932 2123516 2124202 2123212 2120787 2118504 2117294 2116650 2116528 2116776 2117266 2117832 2117993 2118038 2118210 2118347 2118822 2119308 2119749 2120479 2121008 2121636 2122340 2122863 2123414 2123890 2123282 2120785 2118387 2116956 2116279 2116249 2116365 2117028 2117573 2117692 2117764 2117977 2118224 2118485 2119177 2119758 2120299 2121116 2121672 2122183 2122693 2123362 2123978 2124481 2123123 2120645 2118643 2117601 2117247 2117414 2117766 2118370 2118707 2118482 2118321 2118490 2118750 2119196 2119631 2120142 2120799 2121049 2121650 2122229 2122606 2123182 2121810 2119212 2116811 2115668 2115027 2114777 2115037 2115717 2116204 2116208 2116130 2116130 2116531 2116862 2117513 2117911 2118554 2119206 2119788 2120451 2121017 2121757 2122194 2121599 2119078 2116584 2115206 2114435 2114115 2114110 2114824 2115289 2115569 2115677 2115792 2116125 2116649 2117120 2117717 2118441 2119038 2119888 2120476 2121197 2121737 2122557 2123199 2122317 2119998 2117832 2116758 2116298 2116300 2116801 2117268 2117903 2117904 2118045 2118049 2118239 2118604 2119158 2119659 2120302 2120884 2121493 2122067 2122654 2123055 2122334 2119852 2117729 2116603 2115826 2115857 2116163 2116897 2117204 2117270 2117157 2117314 2117804 2118248 2118612 2119224 2119794 2120500 2121097 2121678 2122126 2122976 2123538 2123793 2121987 2119459 2117402 2116410 2115974 2115923 2116216 2116839 2117135 2117223 2117323 2117534 2117762 2118444 2119026 2119446 2120207 2120735 2121285 2122079 2122559 2123218 2123859 2123832 2121652 2119178 2117791 2117041 2116744 2117095 2117605 2118274 2118279 2118195 2118294 2118423 2118638 2119281 2119661 2120282 2120888 2121361 2122005 2122588 2123114 2122655 2120261 2117867 2116474 2115973 2115678 2115805 2116455 2116799 2117181 2116967 2117205 2117415 2117803 2118226 2118841 2119574 2120085 2120763 2121246 2121902 2122584 2122964 2121562 2118855 2116852 2115529 2115068 2115031 2115270 2115841 2116102 2116246 2116183 2116400 2116739 2117183 2117868 2118404 2119011 2119657 2120318 2120940 2121580 2122310 2122816 2121600 2119032 2116915 2115848 2115507 2115392 2115885 2116347 2116751 2116727 2116764 2116975 2117315 2117719 2118312 2118852 2119455 2120175 2120699 2121424 2121850 2122372 2120821 2118591 2116472 2115482 2115083 2115232 2115625 2116207 2116440 2116352 2116453 2116665 2117133 2117433 2118157 2118657 2119468 2120103 2120741 2121215 2121810 2122038 2120086 2117456 2115550 2114742 2114276 2114219 2114770 2115262 2115473 2115594 2115709 2116004 2116253 2116938 2117571 2118137 2118831 2119400 2120075 2120804 2121571 2122216 2122190 2120140 2117644 2116073 2115486 2115074 2115356 2115912 2116513 2116636 2116673 2116985 2117231 2117493 2118252 2118885 2119336 2119978 2120811 2121327 2121929 2122695 2122887 2120842 2118449 2117069 2116330 2116099 2116278 2116673 2117255 2117493 2117346 2117543 2117766 2118069 2118740 2119124 2119800 2120419 2120900 2121623 2122114 2122738 2123089 2121031 2118431 2116594 2115735 2115167 2115206 2115615 2116236 2116395 2116370 2116238 2116507 2116812 2117253 2118057 2118602 2119137 2119961 2120325 2120953 2121599 2122307 2122691 2121604 2119191 2116931 2115699 2115218 2115221 2115507 2116129 2116676 2116683 2116734 2116966 2117301 2117802 2118467 2118991 2119635 2120320 2121010 2121731 2122371 2122920 2123018 2121218 2118835 2117404 2116548 2116171 2116466 2117095 2117677 2117939 2117929 2117946 2118296 2118635 2119259 2119630 2120404 2121058 2121430 2122053 2122532 2123240 2123512 2121240 2118806 2117104 2116446 2116088 2116170 2116498 2117207 2117644 2117612 2117833 2118193 2118454 2119017 2119642 2120117 2120894 2121353 2122049 2122702 2123249 2123869 2123556 2121417 2118959 2117510 2116972 2116875 2117096 2117773 2118356 2118858 2118874 2119019 2119389 2119788 2120241 2120915 2121605 2122205 2122906 2123637 2124153 2124780 2125259 2125176 2123010 2121522 2120101 2119507 2119509 2119649 2120267 2121042 2121471 2121302 2121521 2121571 2121962 2122632 2123009 2123473 2124190 2124665 2125351 2125720 2126247 2125285 2123389 2121179 2120140 2119706 2119722 2120073 2120687 2121109 2121344 2121387 2121545 2121749 2122071 2122647 2123055 2123736 2124334 2124731 2125386 2125884 2126357 2125781 2123612 2121291 2119964 2119534 2119523 2119604 2120408 2120833 2121078 2121091 2121343 2121551 2122016 2122611 2123007 2123612 2124131 2124718 2125351 2125909 2126448 2126332 2124222 2122026 2120655 2120141 2120086 2120350 2120880 2121313 2121459 2121561 2121479 2121592 2121909 2122373 2122703 2123617 2123760 2124460 2124808 2125415 2125898 2124816 2122408 2120147 2119224 2118674 2118463 2118739 2119469 2119681 2119718 2119782 2120025 2120302 2120732 2121137 2121738 2122251 2122927 2123378 2123788 2124510 2124964 2124014 2121537 2119339 2118081 2117473 2117123 2117300 2117907 2118252 2118511 2118690 2118713 2119097 2119412 2119853 2120515 2121185 2121806 2122594 2123112 2123713 2124218 2124857 2124053 2121639 2119427 2118285 2118009 2118013 2118295 2118960 2119328 2119456 2119436 2119602 2119848 2120314 2120898 2121327 2122008 2122603 2123138 2123585 2124214 2124315 2122450 2119882 2118197 2117624 2117586 2117664 2118128 2118776 2118801 2119045 2119175 2119295 2119616 2120441 2120844 2121623 2122195 2122792 2123403 2124045 2124561 2125082 2123994 2121464 2119385 2118383 2117827 2117844 2118132 2118711 2119258 2119373 2119331 2119675 2119888 2120396 2121055 2121675 2122293 2123013 2123740 2124202 2124861 2125428 2126084 2126175 2124204 2121923 2120414 2119957 2119956 2119857 2120551 2121139 2121607 2121703 2121852 2121834 2122294 2122665 2123304 2123747 2124437 2124927 2125550 2126050 2126501 2127035 2125661 2123359 2121373 2120524 2120022 2120138 2120608 2121117 2121568 2121758 2121724 2121991 2122212 2122540 2122973 2123498 2124054 2124673 2125154 2125720 2126236 2126683 2127061 2125025 2122289 2120386 2119593 2119055 2119069 2119517 2120176 2120534 2120621 2120644 2120748 2121107 2121577 2122149 2122789 2123248 2123898 2124681 2125121 2125804 2126283 2126628 2124950 2122440 2120684 2119885 2119758 2119771 2120314 2120946 2121424 2121619 2121571 2121717 2122169 2122437 2122805 2123493 2124048 2124577 2125228 2125721 2126326 2125683 2123199 2120979 2119882 2119081 2119179 2119286 2120051 2120737 2120769 2120793 2121025 2121298 2121634 2122170 2122698 2123356 2123822 2124362 2125121 2125783 2126226 2125899 2123434 2121023 2119368 2118761 2118535 2118811 2119419 2120110 2120318 2120526 2120687 2120828 2121344 2122020 2122422 2123075 2123674 2124377 2125111 2125710 2126313 2126679 2125318 2123192 2121113 2120408 2120168 2120280 2120717 2121643 2122048 2122160 2122041 2122270 2122642 2123053 2123448 2123980 2124608 2125221 2125820 2126293 2126632 2125328 2122983 2121011 2120207 2119854 2120052 2120510 2121055 2121546 2121635 2121566 2121922 2122100 2122783 2123105 2123744 2124424 2124849 2125497 2126229 2126715 2126778 2124953 2122374 2120535 2119692 2119510 2119573 2119958 2120667 2121015 2121161 2121159 2121491 2121885 2122398 2122934 2123459 2124076 2124629 2125386 2126059 2126758 2127270 2126816 2124600 2122613 2121483 2120964 2121101 2121576 2122323 2122912 2123227 2123111 2123278 2123664 2124010 2124423 2125016 2125735 2126301 2126682 2127215 2127796 2127795 2126109 2123505 2122147 2121298 2121048 2121454 2121933 2122572 2122731 2122885 2123045 2123326 2123761 2124368 2124841 2125285 2125954 2126552 2127219 2127716 2128506 2128367 2126172 2123959 2122311 2121714 2121777 2122012 2122402 2123284 2123534 2123778 2123855 2124145 2124569 2125379 2125732 2126307 2127110 2127653 2128297 2128841 2129629 2129782 2128214 2125924 2124270 2123779 2123686 2123843 2124531 2125225 2125486 2125770 2125751 2125884 2126226 2126696 2127014 2127476 2128018 2128513 2129055 2129748 2129624 2127598 2125118 2123515 2122857 2122966 2123012 2123564 2124295 2124456 2124546 2124626 2124707 2125150 2125679 2126099 2126632 2127095 2127723 2128380 2128952 2129255 2128178 2125621 2123334 2122326 2121921 2121798 2122091 2122507 2123211 2123306 2123457 2123542 2123886 2124411 2124918 2125400 2126064 2126740 2127276 2127925 2128586 2129121 2128669 2126471 2124065 2122900 2122323 2122238 2122651 2123187 2123922 2124171 2124176 2124413 2124657 2125107 2125459 2126052 2126600 2127151 2127741 2128379 2128906 2128457 2126212 2123988 2122899 2122428 2122515 2122889 2123773 2124074 2124354 2124452 2124599 2124806 2125222 2125565 2126243 2126867 2127516 2128089 2128504 2129058 2128092 2125488 2123385 2122125 2121774 2121781 2122161 2122937 2123340 2123523 2123497 2123896 2124070 2124597 2125026 2125624 2126230 2126768 2127445 2127950 2128479 2127537 2125137 2122865 2121796 2121417 2121273 2121799 2122473 2122921 2123185 2123160 2123544 2123724 2124295 2124791 2125447 2126164 2126699 2127390 2128008 2128473 2128572 2126646 2124470 2122889 2122473 2122331 2122673 2123359 2123917 2124389 2124357 2124485 2124736 2125012 2125646 2125971 2126561 2127241 2127742 2128362 2128684 2126912 2124631 2122843 2122267 2122134 2122255 2122801 2123670 2123895 2123929 2124055 2124245 2124655 2125172 2125684 2126247 2126733 2127332 2127973 2128486 2127768 2125359 2123098 2121875 2121247 2121207 2121507 2122176 2122863 2122761 2122940 2123125 2123304 2123882 2124322 2124887 2125378 2125860 2126576 2127125 2127663 2127546 2125185 2122826 2121361 2120735 2120602 2120702 2121406 2122047 2122400 2122352 2122692 2122882 2123245 2123770 2124410 2124947 2125739 2126197 2126946 2127515 2128215 2127471 2125448 2122955 2121970 2121537 2121659 2122276 2122858 2123486 2123514 2123647 2123807 2124068 2124306 2124774 2125316 2125902 2126425 2127002 2127748 2128140 2126750 2124274 2122155 2121359 2121156 2121160 2121642 2122335 2122829 2122844 2122910 2123055 2123411 2123911 2124457 2125000 2125505 2126211 2126771 2127276 2127813 2128077 2126099 2123356 2121717 2120984 2120568 2120731 2121146 2121804 2122356 2122442 2122558 2122619 2123051 2123503 2124138 2124540 2125101 2125923 2126366 2127063 2127418 2127863 2126395 2123972 2121817 2120814 2120416 2120497 2120855 2121616 2122142 2122228 2122414 2122607 2122776 2123276 2123928 2124449 2125026 2125719 2126493 2126969 2127495 2128150 2127529 2125294 2123080 2121887 2121536 2121620 2122009 2122719 2123449 2123451 2123698 2123640 2123987 2124484 2124912 2125536 2125924 2126558 2127265 2127744 2128338 2128580 2126535 2124108 2122392 2121808 2121428 2121703 2122288 2123063 2123558 2123556 2123636 2123937 2124216 2124844 2125185 2125910 2126383 2127033 2127498 2128061 2128658 2129031 2127511 2124734 2122952 2122010 2121496 2121732 2122175 2122916 2123336 2123523 2123628 2123861 2124059 2124579 2125276 2125710 2126255 2126801 2127401 2128223 2128759 2129303 2129436 2127612 2125227 2123614 2123097 2122953 2122994 2123739 2124464 2124700 2124822 2124906 2124945 2125402 2125800 2126231 2126712 2127377 2127880 2128463 2128873 2129313 2128369 2125917 2123893 2122746 2122625 2122678 2123074 2123735 2124244 2124316 2124309 2124437 2124729 2125180 2125594 2126088 2126774 2127255 2127744 2128334 2128733 2128425 2126142 2123620 2122125 2121678 2121382 2121569 2122337 2122831 2123032 2123213 2123190 2123277 2123841 2124379 2124724 2125213 2125895 2126254 2126976 2127579 2127886 2126196 2123752 2121938 2121083 2120765 2120872 2121537 2122211 2122432 2122605 2122603 2122842 2123202 2123626 2124181 2124541 2125296 2125730 2126437 2127084 2127694 2126555 2124319 2122359 2121479 2121166 2121251 2121801 2122349 2122874 2122748 2122706 2122882 2123363 2123680 2124227 2124844 2125321 2125741 2126289 2126786 2126837 2125074 2122624 2121101 2120402 2119998 2120114 2120815 2121391 2121376 2121511 2121456 2121871 2122197 2122760 2123227 2123849 2124427 2124938 2125562 2126185 2126715 2125767 2123178 2121007 2119793 2119300 2119329 2119660 2120376 2120769 2120815 2120901 2121130 2121513 2121897 2122498 2123005 2123763 2124301 2124858 2125668 2126064 2126901 2127209 2125684 2123184 2121345 2120501 2120223 2120510 2120933 2121698 2121934 2122039 2121988 2122249 2122531 2123056 2123550 2124099 2124831 2125369 2125830 2126517 2127023 2126685 2124315 2122185 2120814 2120432 2120407 2120595 2121289 2121998 2122010 2122082 2122236 2122586 2122992 2123385 2123999 2124604 2125235 2125762 2126336 2126894 2127366 2126998 2124862 2122436 2121018 2120398 2120432 2120552 2121157 2121666 2122002 2122054 2122222 2122489 2122834 2123335 2123990 2124263 2125086 2125674 2126197 2126771 2127307 2127889 2127359 2125143 2122904 2121615 2121219 2121172 2121631 2122203 2122853 2123132 2123080 2123515 2123582 2123861 2124762 2125098 2125863 2126461 2126968 2127484 2128175 2128703 2129133 2127834 2125829 2123945 2123284 2123156 2123215 2123669 2124618 2124894 2124993 2124971 2125090 2125373 2125699 2126378 2126806 2127303 2127975 2128377 2128917 2129330 2129613 2128358 2125845 2124184 2123360 2123081 2123241 2123654 2124156 2124725 2124678 2124748 2124874 2125207 2125601 2126121 2126834 2127169 2127700 2128259 2128762 2129306 2129745 2129120 2126932 2124512 2123324 2122782 2122498 2122759 2123142 2123900 2124135 2124090 2124165 2124442 2124828 2125266 2125762 2126347 2126895 2127365 2128050 2128555 2129049 2129724 2129715 2127780 2125562 2124051 2123433 2123325 2123531 2124172 2124867 2125101 2125257 2125394 2125475 2125755 2126146 2126800 2127348 2127781 2128297 2128938 2129415 2129971 2130282 2128583 2126330 2124743 2123969 2123968 2123973 2124585 2125357 2125676 2125596 2125852 2125834 2126176 2126589 2127119 2127601 2128213 2128656 2129178 2129640 2130222 2130251 2128414 2126086 2124498 2123652 2123476 2123503 2124041 2124821 2125114 2125173 2125220 2125314 2125654 2126150 2126610 2127040 2127476 2128348 2128746 2129263 2129663 2130314 2130818 2130257 2128041 2125740 2124366 2123810 2123804 2123876 2124577 2125124 2125506 2125485 2125512 2125833 2126321 2126600 2127041 2127661 2128221 2128957 2129332 2130018 2130453 2131073 2131142 2129798 2127224 2125745 2125170 2124931 2125349 2125959 2126600 2126907 2127025 2127111 2127148 2127444 2127886 2128386 2128600 2129214 2129704 2130198 2130611 2131243 2131179 2129187 2127094 2125785 2125102 2125063 2125263 2125959 2126552 2126690 2126899 2127053 2127121 2127367 2127773 2128087 2128784 2129196 2129785 2130178 2130576 2131247 2131586 2131062 2129081 2126714 2125575 2124824 2124683 2124931 2125606 2126069 2126436 2126363 2126452 2126698 2126884 2127274 2127823 2128317 2128741 2129536 2129802 2130484 2130733 2131329 2131045 2129248 2127027 2125561 2125093 2124928 2125226 2125899 2126651 2126768 2126921 2127036 2127418 2127441 2127956 2128553 2129037 2129631 2130308 2130614 2131248 2131842 2131861 2129900 2127935 2126790 2126313 2126338 2126628 2127399 2127793 2128167 2128219 2128358 2128293 2128841 2129231 2129613 2130211 2130645 2131078 2131517 2132048 2132453 2132068 2130081 2128125 2127052 2126706 2126773 2126987 2127477 2128080 2128359 2128510 2128524 2128601 2129053 2129375 2129850 2130403 2130927 2131332 2131741 2132210 2132843 2132895 2131377 2129398 2127700 2127082 2126828 2127129 2127429 2128011 2128345 2128336 2128486 2128538 2128785 2129200 2129620 2130042 2130494 2131034 2131395 2131729 2132271 2132797 2133002 2131575 2129543 2127927 2127207 2126999 2126962 2127483 2128083 2128560 2128663 2128692 2128680 2129145 2129495 2129768 2130356 2130675 2131226 2131622 2132383 2132688 2133055 2132184 2130163 2128405 2127574 2127381 2127591 2128160 2128806 2129122 2129169 2129111 2129320 2129453 2129750 2130112 2130626 2131020 2131488 2131949 2132357 2132740 2132256 2130088 2128152 2127023 2126609 2126460 2126758 2127450 2127688 2127895 2128079 2128209 2128325 2128682 2129005 2129530 2129873 2130587 2131004 2131562 2132035 2132390 2132649 2131105 2128664 2126969 2126232 2125884 2125924 2126347 2127031 2127460 2127482 2127580 2127799 2127897 2128463 2128958 2129393 2129895 2130442 2130891 2131544 2131986 2132366 2132748 2132155 2129949 2127915 2126812 2126318 2126387 2126723 2127421 2127915 2128065 2128087 2128249 2128449 2128592 2129066 2129576 2130151 2130519 2130954 2131535 2131962 2132340 2132342 2130429 2128387 2126813 2126270 2126396 2126553 2127151 2127740 2127883 2128058 2128046 2128291 2128391 2128787 2129118 2129716 2130270 2130730 2131301 2131666 2132108 2132524 2132107 2129805 2127609 2126242 2125634 2125551 2125727 2126339 2126811 2127007 2127039 2127138 2127324 2127675 2128154 2128582 2128968 2129591 2130026 2130691 2131211 2131784 2132226 2131790 2129852 2127538 2126261 2125719 2125705 2125864 2126616 2127218 2127485 2127550 2127781 2127800 2128184 2128613 2129024 2129636 2130258 2130787 2131298 2131709 2132108 2132547 2131264 2129098 2127465 2126914 2126739 2127073 2127499 2128169 2128468 2128785 2128664 2128779 2128970 2129562 2129765 2130286 2130695 2131295 2131629 2132066 2132458 2131995 2129788 2127749 2126373 2125974 2125965 2126212 2126786 2127175 2127542 2127433 2127403 2127686 2128104 2128469 2128800 2129356 2129854 2130422 2130827 2131290 2131755 2132048 2130499 2127997 2126186 2125243 2124975 2125128 2125476 2125940 2126468 2126522 2126615 2126772 2126972 2127522 2127888 2128408 2129079 2129308 2129915 2130529 2131092 2131590 2132028 2131065 2128941 2126954 2126159 2125931 2126006 2126311 2126961 2127490 2127732 2127722 2127903 2128012 2128337 2128615 2129180 2129552 2130087 2130524 2131099 2131719 2131665 2129894 2127832 2126258 2125674 2125559 2125840 2126336 2126927 2127187 2127265 2127366 2127411 2127612 2128094 2128603 2129229 2129772 2130304 2130613 2131059 2131675 2132034 2130779 2128638 2126660 2125730 2125347 2125356 2125628 2126197 2126650 2126668 2126881 2127002 2127191 2127535 2128090 2128389 2128942 2129598 2130015 2130570 2131000 2131570 2132096 2131951 2130110 2128022 2127059 2126617 2126392 2126672 2127132 2127884 2128080 2128280 2128231 2128318 2128830 2129166 2129713 2130137 2130511 2131175 2131650 2132097 2132533 2132904 2131458 2129710 2128100 2127619 2127457 2127690 2128267 2128653 2129271 2129329 2129309 2129289 2129553 2129924 2130215 2130805 2131142 2131693 2132233 2132739 2133006 2132837 2131314 2129502 2127825 2127146 2126970 2126988 2127312 2128088 2128175 2128227 2128312 2128365 2128624 2129081 2129256 2129696 2130286 2130578 2131127 2131526 2132088 2132282 2130720 2128716 2126757 2125877 2125684 2125662 2125913 2126521 2126798 2126828 2126922 2127095 2127289 2127594 2127915 2128460 2128987 2129383 2129749 2130497 2130866 2131264 2130904 2129031 2126991 2125957 2125473 2125234 2125685 2126167 2126567 2126843 2126651 2126687 2126875 2127153 2127472 2128012 2128390 2128859 2129469 2129902 2130325 2130341 2128436 2126412 2124936 2124141 2124015 2124116 2124786 2125261 2125435 2125259 2125415 2125647 2125855 2126379 2126831 2127366 2127884 2128406 2128908 2129352 2129913 2130211 2128765 2126516 2124763 2123988 2123762 2123727 2124256 2124706 2125073 2125291 2125414 2125338 2125885 2126222 2126789 2127115 2127668 2128379 2128974 2129401 2130111 2130557 2130812 2129241 2127315 2125744 2125214 2125125 2125495 2125883 2126529 2126876 2126883 2127037 2127113 2127435 2127909 2128476 2128784 2129550 2129635 2130361 2130869 2131179 2130224 2128285 2126560 2125854 2125742 2125740 2126288 2126997 2127352 2127306 2127274 2127484 2127776 2128193 2128559 2128853 2129449 2129936 2130388 2130857 2131418 2131361 2129890 2127743 2126122 2125268 2125190 2125373 2125770 2126383 2126670 2126780 2126927 2126972 2127246 2127674 2128129 2128454 2129205 2129561 2130104 2130639 2131188 2131640 2131585 2129640 2127427 2126267 2125488 2125596 2125762 2126291 2126900 2127202 2127392 2127342 2127523 2127853 2128253 2128756 2129226 2129986 2130428 2130900 2131436 2131863 2132450 2132124 2130388 2128298 2127282 2126839 2126915 2126992 2127756 2128372 2128486 2128407 2128527 2128660 2129012 2129416 2129889 2130268 2130773 2131190 2131761 2132106 2132521 2131865 2129749 2127704 2126631 2126334 2126263 2126627 2127126 2127597 2127748 2127790 2127841 2128122 2128548 2128932 2129359 2129802 2130348 2130676 2131357 2131759 2132250 2132368 2130680 2128538 2126814 2125994 2125805 2125986 2126254 2126949 2127269 2127461 2127453 2127651 2127796 2128292 2128772 2129130 2129749 2130121 2130732 2131145 2131718 2132215 2132145 2130394 2128158 2126924 2126433 2126368 2126566 2127202 2127812 2128139 2128277 2128355 2128585 2128862 2129268 2129681 2130270 2130825 2131273 2131838 2132269 2132748 2132988 2131474 2129454 2128052 2127457 2127417 2127629 2128214 2128968 2129317 2129303 2129247 2129411 2129601 2130128 2130405 2130942 2131393 2131878 2132390 2132838 2133241 2132637 2130776 2128656 2127499 2127266 2127129 2127537 2128085 2128421 2128757 2128827 2128759 2128995 2129454 2129591 2130095 2130509 2131042 2131627 2132042 2132451 2132873 2132452 2130289 2128348 2127075 2126756 2126661 2127074 2127452 2127892 2128088 2128200 2128162 2128322 2128713 2129064 2129544 2129833 2130456 2130844 2131403 2131816 2132151 2131587 2129570 2127605 2126449 2126145 2126181 2126347 2127043 2127435 2127554 2127578 2127720 2128045 2128312 2128645 2129167 2129769 2130304 2130777 2131358 2131675 2131956 2130741 2128823 2127180 2126442 2126433 2126571 2127076 2127501