timestamp,value
2025-09-03 00:59:03,1017512
2025-09-03 00:59:03,157248
2025-09-03 00:59:03,68470
2025-09-03 00:59:03,68345
2025-09-03 00:59:03,68304
2025-09-03 00:59:03,68269
2025-09-03 00:59:03,68258
2025-09-03 00:59:03,68165
2025-09-03 00:59:03,68140
2025-09-03 00:59:03,68091
2025-09-03 00:59:03,68087
2025-09-03 00:59:03,67956
2025-09-03 00:59:03,67886
2025-09-03 00:59:03,67755
2025-09-03 00:59:03,67689
2025-09-03 00:59:03,67625
2025-09-03 00:59:03,67650
2025-09-03 00:59:03,67672
2025-09-03 00:59:03,67676
2025-09-03 00:59:03,67781
2025-09-03 00:59:03,67760
2025-09-03 00:59:03,67773
2025-09-03 00:59:03,67842
2025-09-03 00:59:03,67913
2025-09-03 00:59:03,68004
2025-09-03 00:59:03,15800
2025-09-03 00:59:03,16054
2025-09-03 00:59:03,108099
2025-09-03 00:59:03,108391
2025-09-03 00:59:03,108536
2025-09-03 00:59:03,108694
2025-09-03 00:59:03,108862
2025-09-03 00:59:03,108929
2025-09-03 00:59:03,109096
2025-09-03 00:59:03,109108
2025-09-03 00:59:03,109184
2025-09-03 00:59:03,109273
2025-09-03 00:59:03,109329
2025-09-03 00:59:03,109402
2025-09-03 00:59:03,223181
2025-09-03 00:59:03,217636
2025-09-03 00:59:03,217761
2025-09-03 00:59:03,217963
2025-09-03 00:59:03,218130
2025-09-03 00:59:03,218332
2025-09-03 00:59:03,218488
2025-09-03 00:59:03,218616
2025-09-03 00:59:03,218701
2025-09-03 00:59:03,218724
2025-09-03 00:59:03,218638
2025-09-03 00:59:03,218735
2025-09-03 00:59:03,218892
2025-09-03 00:59:03,219510
2025-09-03 00:59:03,1099072
2025-09-03 00:59:03,1092776
2025-09-03 00:59:03,1087516
2025-09-03 00:59:03,1085229
2025-09-03 00:59:03,1087622
2025-09-03 00:59:03,1089401
2025-09-03 00:59:03,1088207
2025-09-03 00:59:03,1086138
2025-09-03 00:59:03,1084682
2025-09-03 00:59:03,1083569
2025-09-03 00:59:03,1082724
2025-09-03 00:59:03,1082703
2025-09-03 00:59:03,1083549
2025-09-03 00:59:03,1084999
2025-09-03 00:59:03,1075037
2025-09-03 00:59:03,1087733
2025-09-03 00:59:03,1086813
2025-09-03 00:59:03,1085726
2025-09-03 00:59:03,1084635
2025-09-03 00:59:03,1084743
2025-09-03 00:59:03,1085217
2025-09-03 00:59:03,1085742
2025-09-03 00:59:03,1086305
2025-09-03 00:59:03,1085596
2025-09-03 00:59:03,1084406
2025-09-03 00:59:03,1083194
2025-09-03 00:59:03,1082494
2025-09-03 00:59:03,1082301
2025-09-03 00:59:03,1082066
2025-09-03 00:59:03,1081826
2025-09-03 00:59:03,1081461
2025-09-03 00:59:03,1081120
2025-09-03 00:59:04,1080808
2025-09-03 00:59:04,1080347
2025-09-03 00:59:04,1079936
2025-09-03 00:59:04,1079599
2025-09-03 00:59:04,1079557
2025-09-03 00:59:04,1079594
2025-09-03 00:59:04,1079608
2025-09-03 00:59:04,1079609
2025-09-03 00:59:04,1079324
2025-09-03 00:59:04,1079274
2025-09-03 00:59:04,1079228
2025-09-03 00:59:04,1079179
2025-09-03 00:59:04,1078971
2025-09-03 00:59:04,1078444
2025-09-03 00:59:04,1077746
2025-09-03 00:59:04,1077167
2025-09-03 00:59:04,1076681
2025-09-03 00:59:04,1076294
2025-09-03 00:59:04,1076260
2025-09-03 00:59:04,1076087
2025-09-03 00:59:04,1075890
2025-09-03 00:59:04,1075664
2025-09-03 00:59:04,1075540
2025-09-03 00:59:04,1075412
2025-09-03 00:59:04,1075641
2025-09-03 00:59:04,1075764
2025-09-03 00:59:04,1075557
2025-09-03 00:59:04,1075505
2025-09-03 00:59:04,1075417
2025-09-03 00:59:04,1075725
2025-09-03 00:59:04,1076193
2025-09-03 00:59:04,1076536
2025-09-03 00:59:04,1076716
2025-09-03 00:59:04,1076826
2025-09-03 00:59:04,1077149
2025-09-03 00:59:04,1077145
2025-09-03 00:59:04,1077067
2025-09-03 00:59:04,1077088
2025-09-03 00:59:04,1077189
2025-09-03 00:59:04,1077360
2025-09-03 00:59:04,1077421
2025-09-03 00:59:04,1077572
2025-09-03 00:59:04,1077776
2025-09-03 00:59:04,1077867
2025-09-03 00:59:04,1078209
2025-09-03 00:59:04,1078478
2025-09-03 00:59:04,1078657
2025-09-03 00:59:04,1078797
2025-09-03 00:59:04,1078858
2025-09-03 00:59:04,1079006
2025-09-03 00:59:04,1079090
2025-09-03 00:59:04,1079138
2025-09-03 00:59:04,1079224
2025-09-03 00:59:04,1079276
2025-09-03 00:59:04,1079350
2025-09-03 00:59:04,1079336
2025-09-03 00:59:04,1079270
2025-09-03 00:59:04,1079283
2025-09-03 00:59:04,1079411
2025-09-03 00:59:04,1079634
2025-09-03 00:59:04,1079681
2025-09-03 00:59:04,1079861
2025-09-03 00:59:04,1080248
2025-09-03 00:59:04,1080547
2025-09-03 00:59:04,1080883
2025-09-03 00:59:04,1080990
2025-09-03 00:59:04,1081102
2025-09-03 00:59:04,1081230
2025-09-03 00:59:04,1081348
2025-09-03 00:59:04,1081348
2025-09-03 00:59:04,1081349
2025-09-03 00:59:04,1081293
2025-09-03 00:59:04,1081307
2025-09-03 00:59:04,1081264
2025-09-03 00:59:04,1081378
2025-09-03 00:59:04,1081635
2025-09-03 00:59:04,1081754
2025-09-03 00:59:04,1081853
2025-09-03 00:59:04,1082051
2025-09-03 00:59:04,1082021
2025-09-03 00:59:04,1081992
2025-09-03 00:59:04,1081934
2025-09-03 00:59:04,1082093
2025-09-03 00:59:04,1082031
2025-09-03 00:59:04,1081812
2025-09-03 00:59:04,1081610
2025-09-03 00:59:04,1081315
2025-09-03 00:59:04,1081206
2025-09-03 00:59:04,1080908
2025-09-03 00:59:04,1080875
2025-09-03 00:59:04,1080742
2025-09-03 00:59:04,1080749
2025-09-03 00:59:04,1080638
2025-09-03 00:59:04,1080538
2025-09-03 00:59:04,1080507
2025-09-03 00:59:04,1080319
2025-09-03 00:59:04,1080228
2025-09-03 00:59:04,1080058
2025-09-03 00:59:04,1080061
2025-09-03 00:59:04,1080139
2025-09-03 00:59:05,1080103
2025-09-03 00:59:05,1080085
2025-09-03 00:59:05,1079996
2025-09-03 00:59:05,1080085
2025-09-03 00:59:05,1080068
2025-09-03 00:59:05,1080208
2025-09-03 00:59:05,1080052
2025-09-03 00:59:05,1079960
2025-09-03 00:59:05,1079822
2025-09-03 00:59:05,1079750
2025-09-03 00:59:05,1079695
2025-09-03 00:59:05,1079677
2025-09-03 00:59:05,1079609
2025-09-03 00:59:05,1079803
2025-09-03 00:59:05,1080071
2025-09-03 00:59:05,1080221
2025-09-03 00:59:05,1080217
2025-09-03 00:59:05,1080159
2025-09-03 00:59:05,1080316
2025-09-03 00:59:05,1080474
2025-09-03 00:59:05,1080305
2025-09-03 00:59:05,1080269
2025-09-03 00:59:05,1080241
2025-09-03 00:59:05,1080137
2025-09-03 00:59:05,1080022
2025-09-03 00:59:05,1080095
2025-09-03 00:59:05,1080007
2025-09-03 00:59:05,1079960
2025-09-03 00:59:05,1079998
2025-09-03 00:59:05,1080041
2025-09-03 00:59:05,1080116
2025-09-03 00:59:05,1080217
2025-09-03 00:59:05,1080324
2025-09-03 00:59:05,1080449
2025-09-03 00:59:05,1080711
2025-09-03 00:59:05,1080894
2025-09-03 00:59:05,1080967
2025-09-03 00:59:05,1080890
2025-09-03 00:59:05,1080793
2025-09-03 00:59:05,1080750
2025-09-03 00:59:05,1080821
2025-09-03 00:59:05,1080892
2025-09-03 00:59:05,1080969
2025-09-03 00:59:05,1080961
2025-09-03 00:59:05,1080987
2025-09-03 00:59:05,1081234
2025-09-03 00:59:05,1081356
2025-09-03 00:59:05,1081508
2025-09-03 00:59:05,1081436
2025-09-03 00:59:05,1081235
2025-09-03 00:59:05,1081119
2025-09-03 00:59:05,1081016
2025-09-03 00:59:05,1081093
2025-09-03 00:59:05,1081164
2025-09-03 00:59:05,1081254
2025-09-03 00:59:05,1081294
2025-09-03 00:59:05,1081113
2025-09-03 00:59:05,1080801
2025-09-03 00:59:05,1080595
2025-09-03 00:59:05,1080494
2025-09-03 00:59:05,1080422
2025-09-03 00:59:05,1080336
2025-09-03 00:59:05,1080219
2025-09-03 00:59:05,1080166
2025-09-03 00:59:05,1079997
2025-09-03 00:59:05,1079679
2025-09-03 00:59:05,1079257
2025-09-03 00:59:05,1078995
2025-09-03 00:59:05,1078574
2025-09-03 00:59:05,1078245
2025-09-03 00:59:05,1077989
2025-09-03 00:59:05,1077741
2025-09-03 00:59:05,1077621
2025-09-03 00:59:05,1077612
2025-09-03 00:59:05,1077312
2025-09-03 00:59:05,1077128
2025-09-03 00:59:05,1076933
2025-09-03 00:59:05,1076757
2025-09-03 00:59:05,1076714
2025-09-03 00:59:05,1076654
2025-09-03 00:59:05,1076801
2025-09-03 00:59:05,1076765
2025-09-03 00:59:05,1076767
2025-09-03 00:59:05,1076679
2025-09-03 00:59:05,1076737
2025-09-03 00:59:05,1076552
2025-09-03 00:59:05,1076328
2025-09-03 00:59:05,1076198
2025-09-03 00:59:05,1076017
2025-09-03 00:59:05,1075873
2025-09-03 00:59:05,1075538
2025-09-03 00:59:05,1075340
2025-09-03 00:59:05,1075349
2025-09-03 00:59:05,1075350
2025-09-03 00:59:05,1075314
2025-09-03 00:59:05,1075128
2025-09-03 00:59:05,1075257
2025-09-03 00:59:05,1075428
2025-09-03 00:59:05,1075558
2025-09-03 00:59:05,1075740
2025-09-03 00:59:06,1075974
2025-09-03 00:59:06,1076123
2025-09-03 00:59:06,1076129
2025-09-03 00:59:06,1075973
2025-09-03 00:59:06,1075639
2025-09-03 00:59:06,1075472
2025-09-03 00:59:06,1075292
2025-09-03 00:59:06,1075204
2025-09-03 00:59:06,1075154
2025-09-03 00:59:06,1075061
2025-09-03 00:59:06,1075178
2025-09-03 00:59:06,1075152
2025-09-03 00:59:06,1075153
2025-09-03 00:59:06,1075187
2025-09-03 00:59:06,1075364
2025-09-03 00:59:06,1075580
2025-09-03 00:59:06,1075688
2025-09-03 00:59:06,1076005
2025-09-03 00:59:06,1075925
2025-09-03 00:59:06,1075892
2025-09-03 00:59:06,1075915
2025-09-03 00:59:06,1075783
2025-09-03 00:59:06,1075529
2025-09-03 00:59:06,1075351
2025-09-03 00:59:06,1075163
2025-09-03 00:59:06,1075139
2025-09-03 00:59:06,1075057
2025-09-03 00:59:06,1074995
2025-09-03 00:59:06,1075184
2025-09-03 00:59:06,1075219
2025-09-03 00:59:06,1075213
2025-09-03 00:59:06,1075048
2025-09-03 00:59:06,1075067
2025-09-03 00:59:06,1075062
2025-09-03 00:59:06,1075328
2025-09-03 00:59:06,1075457
2025-09-03 00:59:06,1075400
2025-09-03 00:59:06,1075233
2025-09-03 00:59:06,1075011
2025-09-03 00:59:06,1074727
2025-09-03 00:59:06,1074675
2025-09-03 00:59:06,1074615
2025-09-03 00:59:06,1074615
2025-09-03 00:59:06,1074110
2025-09-03 00:59:06,1073596
2025-09-03 00:59:06,1073254
2025-09-03 00:59:06,1072907
2025-09-03 00:59:06,1072614
2025-09-03 00:59:06,1072295
2025-09-03 00:59:06,1071819
2025-09-03 00:59:06,1071605
2025-09-03 00:59:06,1071559
2025-09-03 00:59:06,1071651
2025-09-03 00:59:06,1071757
2025-09-03 00:59:06,1071781
2025-09-03 00:59:06,1071735
2025-09-03 00:59:06,1071523
2025-09-03 00:59:06,1071223
2025-09-03 00:59:06,1070932
2025-09-03 00:59:06,1070915
2025-09-03 00:59:06,1070627
2025-09-03 00:59:06,1070417
2025-09-03 00:59:06,1070214
2025-09-03 00:59:06,1070095
2025-09-03 00:59:06,1069987
2025-09-03 00:59:06,1070090
2025-09-03 00:59:06,1070256
2025-09-03 00:59:06,1070027
2025-09-03 00:59:06,1069843
2025-09-03 00:59:06,1070000
2025-09-03 00:59:06,1070044
2025-09-03 00:59:06,1069969
2025-09-03 00:59:06,1069964
2025-09-03 00:59:06,1070117
2025-09-03 00:59:06,1070112
2025-09-03 00:59:06,1069941
2025-09-03 00:59:06,1069678
2025-09-03 00:59:06,1069380
2025-09-03 00:59:06,1069082
2025-09-03 00:59:06,1068909
2025-09-03 00:59:06,1068683
2025-09-03 00:59:06,1068364
2025-09-03 00:59:06,1068130
2025-09-03 00:59:06,1068100
2025-09-03 00:59:06,1068163
2025-09-03 00:59:06,1068304
2025-09-03 00:59:06,1068302
2025-09-03 00:59:06,1068076
2025-09-03 00:59:06,1067852
2025-09-03 00:59:06,1067870
2025-09-03 00:59:06,1067918
2025-09-03 00:59:06,1068177
2025-09-03 00:59:06,1068280
2025-09-03 00:59:06,1068300
2025-09-03 00:59:06,1068154
2025-09-03 00:59:06,1068090
2025-09-03 00:59:06,1068030
2025-09-03 00:59:06,1067947
2025-09-03 00:59:06,1067789
2025-09-03 00:59:06,1067607
2025-09-03 00:59:07,1067478
2025-09-03 00:59:07,1067402
2025-09-03 00:59:07,1067328
2025-09-03 00:59:07,1067228
2025-09-03 00:59:07,1067254
2025-09-03 00:59:07,1067261
2025-09-03 00:59:07,1067183
2025-09-03 00:59:07,1067008
2025-09-03 00:59:07,1067157
2025-09-03 00:59:07,1067489
2025-09-03 00:59:07,1067499
2025-09-03 00:59:07,1067413
2025-09-03 00:59:07,1067431
2025-09-03 00:59:07,1067723
2025-09-03 00:59:07,1067738
2025-09-03 00:59:07,1067409
2025-09-03 00:59:07,1067181
2025-09-03 00:59:07,1067232
2025-09-03 00:59:07,1067150
2025-09-03 00:59:07,1066973
2025-09-03 00:59:07,1066940
2025-09-03 00:59:07,1066933
2025-09-03 00:59:07,1066905
2025-09-03 00:59:07,1066892
2025-09-03 00:59:07,1067108
2025-09-03 00:59:07,1067198
2025-09-03 00:59:07,1067146
2025-09-03 00:59:07,1066748
2025-09-03 00:59:07,1066279
2025-09-03 00:59:07,1066026
2025-09-03 00:59:07,1065774
2025-09-03 00:59:07,1065442
2025-09-03 00:59:07,1065095
2025-09-03 00:59:07,1064869
2025-09-03 00:59:07,1064831
2025-09-03 00:59:07,1064615
2025-09-03 00:59:07,1064379
2025-09-03 00:59:07,1064053
2025-09-03 00:59:07,1063953
2025-09-03 00:59:07,1063841
2025-09-03 00:59:07,1063847
2025-09-03 00:59:07,1063591
2025-09-03 00:59:07,1063675
2025-09-03 00:59:07,1063568
2025-09-03 00:59:07,1063550
2025-09-03 00:59:07,1063629
2025-09-03 00:59:07,1063794
2025-09-03 00:59:07,1063965
2025-09-03 00:59:07,1063987
2025-09-03 00:59:07,1064096
2025-09-03 00:59:07,1064068
2025-09-03 00:59:07,1063936
2025-09-03 00:59:07,1063888
2025-09-03 00:59:07,1063771
2025-09-03 00:59:07,1063608
2025-09-03 00:59:07,1063438
2025-09-03 00:59:07,1063399
2025-09-03 00:59:07,1063572
2025-09-03 00:59:07,1063546
2025-09-03 00:59:07,1063411
2025-09-03 00:59:07,1063284
2025-09-03 00:59:07,1063237
2025-09-03 00:59:07,1063101
2025-09-03 00:59:07,1062960
2025-09-03 00:59:07,1063040
2025-09-03 00:59:07,1063066
2025-09-03 00:59:07,1062930
2025-09-03 00:59:07,1062898
2025-09-03 00:59:07,1062807
2025-09-03 00:59:07,1062797
2025-09-03 00:59:07,1062881
2025-09-03 00:59:07,1062926
2025-09-03 00:59:07,1063009
2025-09-03 00:59:07,1062822
2025-09-03 00:59:07,1062743
2025-09-03 00:59:07,1062896
2025-09-03 00:59:07,1062936
2025-09-03 00:59:07,1062893
2025-09-03 00:59:07,1062810
2025-09-03 00:59:07,1062501
2025-09-03 00:59:07,1062313
2025-09-03 00:59:07,1062068
2025-09-03 00:59:07,1061798
2025-09-03 00:59:07,1061539
2025-09-03 00:59:07,1061464
2025-09-03 00:59:07,1061445
2025-09-03 00:59:07,1061434
2025-09-03 00:59:07,1061341
2025-09-03 00:59:07,1061533
2025-09-03 00:59:07,1061939
2025-09-03 00:59:07,1062207
2025-09-03 00:59:07,1062079
2025-09-03 00:59:07,1062051
2025-09-03 00:59:07,1061976
2025-09-03 00:59:07,1062053
2025-09-03 00:59:07,1062049
2025-09-03 00:59:07,1062109
2025-09-03 00:59:07,1062035
2025-09-03 00:59:07,1061898
2025-09-03 00:59:08,1061686
2025-09-03 00:59:08,1061428
2025-09-03 00:59:08,1061399
2025-09-03 00:59:08,1061329
2025-09-03 00:59:08,1061300
2025-09-03 00:59:08,1061296
2025-09-03 00:59:08,1061343
2025-09-03 00:59:08,1061613
2025-09-03 00:59:08,1061904
2025-09-03 00:59:08,1062110
2025-09-03 00:59:08,1062165
2025-09-03 00:59:08,1062114
2025-09-03 00:59:08,1061850
2025-09-03 00:59:08,1061736
2025-09-03 00:59:08,1061536
2025-09-03 00:59:08,1061326
2025-09-03 00:59:08,1061069
2025-09-03 00:59:08,1060818
2025-09-03 00:59:08,1060600
2025-09-03 00:59:08,1060360
2025-09-03 00:59:08,1059932
2025-09-03 00:59:08,1059421
2025-09-03 00:59:08,1059134
2025-09-03 00:59:08,1058712
2025-09-03 00:59:08,1058426
2025-09-03 00:59:08,1058378
2025-09-03 00:59:08,1058205
2025-09-03 00:59:08,1058239
2025-09-03 00:59:08,1058214
2025-09-03 00:59:08,1058404
2025-09-03 00:59:08,1058446
2025-09-03 00:59:08,1058543
2025-09-03 00:59:08,1058573
2025-09-03 00:59:08,1058520
2025-09-03 00:59:08,1058522
2025-09-03 00:59:08,1058564
2025-09-03 00:59:08,1058602
2025-09-03 00:59:08,1058575
2025-09-03 00:59:08,1058611
2025-09-03 00:59:08,1058659
2025-09-03 00:59:08,1058621
2025-09-03 00:59:08,1058473
2025-09-03 00:59:08,1058504
2025-09-03 00:59:08,1058417
2025-09-03 00:59:08,1058364
2025-09-03 00:59:08,1058448
2025-09-03 00:59:08,1058305
2025-09-03 00:59:08,1058283
2025-09-03 00:59:08,1058253
2025-09-03 00:59:08,1058192
2025-09-03 00:59:08,1058177
2025-09-03 00:59:08,1058370
2025-09-03 00:59:08,1058468
2025-09-03 00:59:08,1058715
2025-09-03 00:59:08,1058845
2025-09-03 00:59:08,1059058
2025-09-03 00:59:08,1059351
2025-09-03 00:59:08,1059406
2025-09-03 00:59:08,1059421
2025-09-03 00:59:08,1059493
2025-09-03 00:59:08,1059520
2025-09-03 00:59:08,1059810
2025-09-03 00:59:08,1059863
2025-09-03 00:59:08,1059866
2025-09-03 00:59:08,1059991
2025-09-03 00:59:08,1059824
2025-09-03 00:59:08,1059759
2025-09-03 00:59:08,1059649
2025-09-03 00:59:08,1059473
2025-09-03 00:59:08,1059535
2025-09-03 00:59:08,1059466
2025-09-03 00:59:08,1059465
2025-09-03 00:59:08,1059614
2025-09-03 00:59:08,1059833
2025-09-03 00:59:08,1060032
2025-09-03 00:59:08,1060068
2025-09-03 00:59:08,1060216
2025-09-03 00:59:08,1060240
2025-09-03 00:59:08,1060295
2025-09-03 00:59:08,1060308
2025-09-03 00:59:08,1060320
2025-09-03 00:59:08,1060424
2025-09-03 00:59:08,1060472
2025-09-03 00:59:08,1060628
2025-09-03 00:59:08,1060674
2025-09-03 00:59:08,1060758
2025-09-03 00:59:08,1060808
2025-09-03 00:59:08,1060867
2025-09-03 00:59:08,1060970
2025-09-03 00:59:08,1061099
2025-09-03 00:59:08,1061176
2025-09-03 00:59:08,1061246
2025-09-03 00:59:08,1061306
2025-09-03 00:59:08,1061368
2025-09-03 00:59:08,1061499
2025-09-03 00:59:08,1061659
2025-09-03 00:59:08,1061873
2025-09-03 00:59:08,1061870
2025-09-03 00:59:08,1061814
2025-09-03 00:59:08,1061911
2025-09-03 00:59:09,1061890
2025-09-03 00:59:09,1061897
2025-09-03 00:59:09,1061880
2025-09-03 00:59:09,1061804
2025-09-03 00:59:09,1061469
2025-09-03 00:59:09,1061022
2025-09-03 00:59:09,1060441
2025-09-03 00:59:09,1059692
2025-09-03 00:59:09,1059160
2025-09-03 00:59:09,1058474
2025-09-03 00:59:09,1057866
2025-09-03 00:59:09,1057469
2025-09-03 00:59:09,1057031
2025-09-03 00:59:09,1056920
2025-09-03 00:59:09,1056804
2025-09-03 00:59:09,1056798
2025-09-03 00:59:09,1056657
2025-09-03 00:59:09,1056452
2025-09-03 00:59:09,1056421
2025-09-03 00:59:09,1056172
2025-09-03 00:59:09,1056101
2025-09-03 00:59:09,1055955
2025-09-03 00:59:09,1055830
2025-09-03 00:59:09,1055781
2025-09-03 00:59:09,1055899
2025-09-03 00:59:09,1055952
2025-09-03 00:59:09,1056114
2025-09-03 00:59:09,1056341
2025-09-03 00:59:09,1056394
2025-09-03 00:59:09,1056576
2025-09-03 00:59:09,1056540
2025-09-03 00:59:09,1056313
2025-09-03 00:59:09,1056177
2025-09-03 00:59:09,1056043
2025-09-03 00:59:09,1055876
2025-09-03 00:59:09,1055989
2025-09-03 00:59:09,1056226
2025-09-03 00:59:09,1056667
2025-09-03 00:59:09,1057262
2025-09-03 00:59:09,1057824
2025-09-03 00:59:09,1058082
2025-09-03 00:59:09,1058383
2025-09-03 00:59:09,1058717
2025-09-03 00:59:09,1059083
2025-09-03 00:59:09,1059366
2025-09-03 00:59:09,1059760
2025-09-03 00:59:09,1060123
2025-09-03 00:59:09,1060401
2025-09-03 00:59:09,1060701
2025-09-03 00:59:09,1060962
2025-09-03 00:59:09,1061189
2025-09-03 00:59:09,1061429
2025-09-03 00:59:09,1061587
2025-09-03 00:59:09,1061817
2025-09-03 00:59:09,1062004
2025-09-03 00:59:09,1062181
2025-09-03 00:59:09,1062295
2025-09-03 00:59:09,1062327
2025-09-03 00:59:09,1062405
2025-09-03 00:59:09,1062464
2025-09-03 00:59:09,1062215
2025-09-03 00:59:09,1062096
2025-09-03 00:59:09,1062067
2025-09-03 00:59:09,1062069
2025-09-03 00:59:09,1062170
2025-09-03 00:59:09,1062364
2025-09-03 00:59:09,1062488
2025-09-03 00:59:09,1062718
2025-09-03 00:59:09,1062822
2025-09-03 00:59:09,1063019
2025-09-03 00:59:09,1063141
2025-09-03 00:59:09,1063334
2025-09-03 00:59:09,1063507
2025-09-03 00:59:09,1063693
2025-09-03 00:59:09,1063794
2025-09-03 00:59:09,1064044
2025-09-03 00:59:09,1064196
2025-09-03 00:59:09,1064357
2025-09-03 00:59:09,1064460
2025-09-03 00:59:09,1064639
2025-09-03 00:59:09,1064723
2025-09-03 00:59:09,1064896
2025-09-03 00:59:09,1065023
2025-09-03 00:59:09,1065082
2025-09-03 00:59:09,1064973
2025-09-03 00:59:09,1064769
2025-09-03 00:59:09,1064605
2025-09-03 00:59:09,1064449
2025-09-03 00:59:09,1064239
2025-09-03 00:59:09,1064178
2025-09-03 00:59:09,1064060
2025-09-03 00:59:09,1063891
2025-09-03 00:59:09,1063791
2025-09-03 00:59:09,1063708
2025-09-03 00:59:09,1063580
2025-09-03 00:59:09,1063567
2025-09-03 00:59:09,1063612
2025-09-03 00:59:09,1063511
2025-09-03 00:59:09,1063486
2025-09-03 00:59:09,1063578
2025-09-03 00:59:10,1063756
2025-09-03 00:59:10,1063726
2025-09-03 00:59:10,1063806
2025-09-03 00:59:10,1063717
2025-09-03 00:59:10,1063869
2025-09-03 00:59:10,1063963
2025-09-03 00:59:10,1063879
2025-09-03 00:59:10,1063950
2025-09-03 00:59:10,1064005
2025-09-03 00:59:10,1064106
2025-09-03 00:59:10,1064149
2025-09-03 00:59:10,1064239
2025-09-03 00:59:10,1064323
2025-09-03 00:59:10,1064298
2025-09-03 00:59:10,1064433
2025-09-03 00:59:10,1064416
2025-09-03 00:59:10,1064456
2025-09-03 00:59:10,1064477
2025-09-03 00:59:10,1064578
2025-09-03 00:59:10,1064670
2025-09-03 00:59:10,1064678
2025-09-03 00:59:10,1064795
2025-09-03 00:59:10,1064939
2025-09-03 00:59:10,1064948
2025-09-03 00:59:10,1065028
2025-09-03 00:59:10,1065126
2025-09-03 00:59:10,1065142
2025-09-03 00:59:10,1065192
2025-09-03 00:59:10,1065274
2025-09-03 00:59:10,1065316
2025-09-03 00:59:10,1065428
2025-09-03 00:59:10,1065561
2025-09-03 00:59:10,1065623
2025-09-03 00:59:10,1065746
2025-09-03 00:59:10,1065935
2025-09-03 00:59:10,1066066
2025-09-03 00:59:10,1066107
2025-09-03 00:59:10,1066266
2025-09-03 00:59:10,1066333
2025-09-03 00:59:10,1066463
2025-09-03 00:59:10,1066530
2025-09-03 00:59:10,1066516
2025-09-03 00:59:10,1066663
2025-09-03 00:59:10,1066823
2025-09-03 00:59:10,1066883
2025-09-03 00:59:10,1066933
2025-09-03 00:59:10,1067065
2025-09-03 00:59:10,1067181
2025-09-03 00:59:10,1067268
2025-09-03 00:59:10,1067324
2025-09-03 00:59:10,1067285
2025-09-03 00:59:10,1067447
2025-09-03 00:59:10,1067501
2025-09-03 00:59:10,1067581
2025-09-03 00:59:10,1067595
2025-09-03 00:59:10,1067652
2025-09-03 00:59:10,1067628
2025-09-03 00:59:10,1067476
2025-09-03 00:59:10,1067243
2025-09-03 00:59:10,1066898
2025-09-03 00:59:10,1066661
2025-09-03 00:59:10,1066395
2025-09-03 00:59:10,1066092
2025-09-03 00:59:10,1065881
2025-09-03 00:59:10,1065606
2025-09-03 00:59:10,1065361
2025-09-03 00:59:10,1065208
2025-09-03 00:59:10,1065101
2025-09-03 00:59:10,1065115
2025-09-03 00:59:10,1065018
2025-09-03 00:59:10,1065002
2025-09-03 00:59:10,1064949
2025-09-03 00:59:10,1065051
2025-09-03 00:59:10,1065098
2025-09-03 00:59:10,1065123
2025-09-03 00:59:10,1065061
2025-09-03 00:59:10,1065209
2025-09-03 00:59:10,1065220
2025-09-03 00:59:10,1065292
2025-09-03 00:59:10,1065235
2025-09-03 00:59:10,1065265
2025-09-03 00:59:10,1065378
2025-09-03 00:59:10,1065415
2025-09-03 00:59:10,1065484
2025-09-03 00:59:10,1065483
2025-09-03 00:59:10,1065542
2025-09-03 00:59:10,1065569
2025-09-03 00:59:10,1065656
2025-09-03 00:59:10,1065714
2025-09-03 00:59:10,1065767
2025-09-03 00:59:10,1065827
2025-09-03 00:59:10,1065792
2025-09-03 00:59:10,1065745
2025-09-03 00:59:10,1065791
2025-09-03 00:59:10,1065807
2025-09-03 00:59:10,1065805
2025-09-03 00:59:10,1065811
2025-09-03 00:59:10,1065775
2025-09-03 00:59:10,1065803
2025-09-03 00:59:11,1065771
2025-09-03 00:59:11,1065929
2025-09-03 00:59:11,1065880
2025-09-03 00:59:11,1066021
2025-09-03 00:59:11,1065984
2025-09-03 00:59:11,1066055
2025-09-03 00:59:11,1066165
2025-09-03 00:59:11,1066252
2025-09-03 00:59:11,1066326
2025-09-03 00:59:11,1066454
2025-09-03 00:59:11,1066452
2025-09-03 00:59:11,1066564
2025-09-03 00:59:11,1066555
2025-09-03 00:59:11,1066670
2025-09-03 00:59:11,1066660
2025-09-03 00:59:11,1066788
2025-09-03 00:59:11,1066817
2025-09-03 00:59:11,1066775
2025-09-03 00:59:11,1066865
2025-09-03 00:59:11,1066882
2025-09-03 00:59:11,1066902
2025-09-03 00:59:11,1066975
2025-09-03 00:59:11,1067155
2025-09-03 00:59:11,1067159
2025-09-03 00:59:11,1067218
2025-09-03 00:59:11,1067271
2025-09-03 00:59:11,1067343
2025-09-03 00:59:11,1067430
2025-09-03 00:59:11,1067442
2025-09-03 00:59:11,1067589
2025-09-03 00:59:11,1067716
2025-09-03 00:59:11,1067702
2025-09-03 00:59:11,1067426
2025-09-03 00:59:11,1067108
2025-09-03 00:59:11,1066741
2025-09-03 00:59:11,1066453
2025-09-03 00:59:11,1066190
2025-09-03 00:59:11,1065908
2025-09-03 00:59:11,1065699
2025-09-03 00:59:11,1065352
2025-09-03 00:59:11,1065053
2025-09-03 00:59:11,1064927
2025-09-03 00:59:11,1064726
2025-09-03 00:59:11,1064757
2025-09-03 00:59:11,1064615
2025-09-03 00:59:11,1064743
2025-09-03 00:59:11,1064790
2025-09-03 00:59:11,1064714
2025-09-03 00:59:11,1064848
2025-09-03 00:59:11,1064807
2025-09-03 00:59:11,1064778
2025-09-03 00:59:11,1064790
2025-09-03 00:59:11,1064718
2025-09-03 00:59:11,1064757
2025-09-03 00:59:11,1064761
2025-09-03 00:59:11,1064773
2025-09-03 00:59:11,1064855
2025-09-03 00:59:11,1064908
2025-09-03 00:59:11,1065001
2025-09-03 00:59:11,1065082
2025-09-03 00:59:11,1065258
2025-09-03 00:59:11,1065275
2025-09-03 00:59:11,1065217
2025-09-03 00:59:11,1065216
2025-09-03 00:59:11,1065213
2025-09-03 00:59:11,1065191
2025-09-03 00:59:11,1065238
2025-09-03 00:59:11,1065195
2025-09-03 00:59:11,1065239
2025-09-03 00:59:11,1065309
2025-09-03 00:59:11,1065357
2025-09-03 00:59:11,1065361
2025-09-03 00:59:11,1065450
2025-09-03 00:59:11,1065432
2025-09-03 00:59:11,1065329
2025-09-03 00:59:11,1065435
2025-09-03 00:59:11,1065465
2025-09-03 00:59:11,1065578
2025-09-03 00:59:11,1065490
2025-09-03 00:59:11,1065499
2025-09-03 00:59:11,1065674
2025-09-03 00:59:11,1065643
2025-09-03 00:59:11,1065698
2025-09-03 00:59:11,1065762
2025-09-03 00:59:11,1065780
2025-09-03 00:59:11,1065956
2025-09-03 00:59:11,1066025
2025-09-03 00:59:11,1066053
2025-09-03 00:59:11,1066128
2025-09-03 00:59:11,1066181
2025-09-03 00:59:11,1066274
2025-09-03 00:59:11,1066399
2025-09-03 00:59:11,1066440
2025-09-03 00:59:11,1066527
2025-09-03 00:59:11,1066562
2025-09-03 00:59:11,1066628
2025-09-03 00:59:11,1066707
2025-09-03 00:59:11,1066685
2025-09-03 00:59:11,1066621
2025-09-03 00:59:11,1066791
2025-09-03 00:59:11,1066951
2025-09-03 00:59:12,1066910
2025-09-03 00:59:12,1066894
2025-09-03 00:59:12,1066745
2025-09-03 00:59:12,1066511
2025-09-03 00:59:12,1066173
2025-09-03 00:59:12,1065872
2025-09-03 00:59:12,1065422
2025-09-03 00:59:12,1065115
2025-09-03 00:59:12,1064852
2025-09-03 00:59:12,1064701
2025-09-03 00:59:12,1064529
2025-09-03 00:59:12,1064297
2025-09-03 00:59:12,1064104
2025-09-03 00:59:12,1063948
2025-09-03 00:59:12,1063947
2025-09-03 00:59:12,1063785
2025-09-03 00:59:12,1063703
2025-09-03 00:59:12,1063722
2025-09-03 00:59:12,1063699
2025-09-03 00:59:12,1063701
2025-09-03 00:59:12,1063609
2025-09-03 00:59:12,1063748
2025-09-03 00:59:12,1063795
2025-09-03 00:59:12,1063780
2025-09-03 00:59:12,1063761
2025-09-03 00:59:12,1063903
2025-09-03 00:59:12,1064001
2025-09-03 00:59:12,1063974
2025-09-03 00:59:12,1064077
2025-09-03 00:59:12,1064199
2025-09-03 00:59:12,1064205
2025-09-03 00:59:12,1064292
2025-09-03 00:59:12,1064321
2025-09-03 00:59:12,1064310
2025-09-03 00:59:12,1064323
2025-09-03 00:59:12,1064385
2025-09-03 00:59:12,1064287
2025-09-03 00:59:12,1064292
2025-09-03 00:59:12,1064218
2025-09-03 00:59:12,1064253
2025-09-03 00:59:12,1064231
2025-09-03 00:59:12,1064408
2025-09-03 00:59:12,1064579
2025-09-03 00:59:12,1064615
2025-09-03 00:59:12,1064700
2025-09-03 00:59:12,1064829
2025-09-03 00:59:12,1064901
2025-09-03 00:59:12,1064789
2025-09-03 00:59:12,1064846
2025-09-03 00:59:12,1064852
2025-09-03 00:59:12,1064901
2025-09-03 00:59:12,1064998
2025-09-03 00:59:12,1065054
2025-09-03 00:59:12,1065105
2025-09-03 00:59:12,1065203
2025-09-03 00:59:12,1065166
2025-09-03 00:59:12,1065325
2025-09-03 00:59:12,1065262
2025-09-03 00:59:12,1065382
2025-09-03 00:59:12,1065368
2025-09-03 00:59:12,1065382
2025-09-03 00:59:12,1065452
2025-09-03 00:59:12,1065479
2025-09-03 00:59:12,1065497
2025-09-03 00:59:12,1065621
2025-09-03 00:59:12,1065606
2025-09-03 00:59:12,1065695
2025-09-03 00:59:12,1065787
2025-09-03 00:59:12,1065866
2025-09-03 00:59:12,1065854
2025-09-03 00:59:12,1065784
2025-09-03 00:59:12,1065567
2025-09-03 00:59:12,1065265
2025-09-03 00:59:12,1064989
2025-09-03 00:59:12,1064661
2025-09-03 00:59:12,1064382
2025-09-03 00:59:12,1064006
2025-09-03 00:59:12,1063696
2025-09-03 00:59:12,1063400
2025-09-03 00:59:12,1063104
2025-09-03 00:59:12,1062991
2025-09-03 00:59:12,1062770
2025-09-03 00:59:12,1062815
2025-09-03 00:59:12,1062794
2025-09-03 00:59:12,1062761
2025-09-03 00:59:12,1062672
2025-09-03 00:59:12,1062754
2025-09-03 00:59:12,1062798
2025-09-03 00:59:12,1062761
2025-09-03 00:59:12,1062679
2025-09-03 00:59:12,1062803
2025-09-03 00:59:12,1062726
2025-09-03 00:59:12,1062660
2025-09-03 00:59:12,1062745
2025-09-03 00:59:12,1062740
2025-09-03 00:59:12,1062693
2025-09-03 00:59:12,1062739
2025-09-03 00:59:12,1062679
2025-09-03 00:59:12,1062609
2025-09-03 00:59:12,1062601
2025-09-03 00:59:13,1062674
2025-09-03 00:59:13,1062720
2025-09-03 00:59:13,1062846
2025-09-03 00:59:13,1062877
2025-09-03 00:59:13,1062898
2025-09-03 00:59:13,1062839
2025-09-03 00:59:13,1062897
2025-09-03 00:59:13,1062886
2025-09-03 00:59:13,1062851
2025-09-03 00:59:13,1062864
2025-09-03 00:59:13,1062879
2025-09-03 00:59:13,1062932
2025-09-03 00:59:13,1063118
2025-09-03 00:59:13,1063260
2025-09-03 00:59:13,1063398
2025-09-03 00:59:13,1063464
2025-09-03 00:59:13,1063645
2025-09-03 00:59:13,1063792
2025-09-03 00:59:13,1063890
2025-09-03 00:59:13,1064088
2025-09-03 00:59:13,1064202
2025-09-03 00:59:13,1064245
2025-09-03 00:59:13,1064332
2025-09-03 00:59:13,1064415
2025-09-03 00:59:13,1064560
2025-09-03 00:59:13,1064643
2025-09-03 00:59:13,1064707
2025-09-03 00:59:13,1064742
2025-09-03 00:59:13,1064867
2025-09-03 00:59:13,1064971
2025-09-03 00:59:13,1065033
2025-09-03 00:59:13,1065196
2025-09-03 00:59:13,1065252
2025-09-03 00:59:13,1065392
2025-09-03 00:59:13,1065382
2025-09-03 00:59:13,1065464
2025-09-03 00:59:13,1065565
2025-09-03 00:59:13,1065674
2025-09-03 00:59:13,1065666
2025-09-03 00:59:13,1065696
2025-09-03 00:59:13,1065639
2025-09-03 00:59:13,1065512
2025-09-03 00:59:13,1065231
2025-09-03 00:59:13,1064926
2025-09-03 00:59:13,1064628
2025-09-03 00:59:13,1064276
2025-09-03 00:59:13,1063847
2025-09-03 00:59:13,1063506
2025-09-03 00:59:13,1063193
2025-09-03 00:59:13,1062958
2025-09-03 00:59:13,1062735
2025-09-03 00:59:13,1062679
2025-09-03 00:59:13,1062547
2025-09-03 00:59:13,1062472
2025-09-03 00:59:13,1062416
2025-09-03 00:59:13,1062379
2025-09-03 00:59:13,1062378
2025-09-03 00:59:13,1062303
2025-09-03 00:59:13,1062320
2025-09-03 00:59:13,1062272
2025-09-03 00:59:13,1062379
2025-09-03 00:59:13,1062318
2025-09-03 00:59:13,1062267
2025-09-03 00:59:13,1062211
2025-09-03 00:59:13,1062231
2025-09-03 00:59:13,1062325
2025-09-03 00:59:13,1062273
2025-09-03 00:59:13,1062373
2025-09-03 00:59:13,1062395
2025-09-03 00:59:13,1062410
2025-09-03 00:59:13,1062538
2025-09-03 00:59:13,1062554
2025-09-03 00:59:13,1062567
2025-09-03 00:59:13,1062596
2025-09-03 00:59:13,1062605
2025-09-03 00:59:13,1062687
2025-09-03 00:59:13,1062686
2025-09-03 00:59:13,1062586
2025-09-03 00:59:13,1062575
2025-09-03 00:59:13,1062660
2025-09-03 00:59:13,1062578
2025-09-03 00:59:13,1062633
2025-09-03 00:59:13,1062608
2025-09-03 00:59:13,1062619
2025-09-03 00:59:13,1062660
2025-09-03 00:59:13,1062686
2025-09-03 00:59:13,1062789
2025-09-03 00:59:13,1062806
2025-09-03 00:59:13,1062920
2025-09-03 00:59:13,1063010
2025-09-03 00:59:13,1063010
2025-09-03 00:59:13,1063108
2025-09-03 00:59:13,1063150
2025-09-03 00:59:13,1063162
2025-09-03 00:59:13,1063331
2025-09-03 00:59:13,1063263
2025-09-03 00:59:13,1063416
2025-09-03 00:59:13,1063398
2025-09-03 00:59:13,1063438
2025-09-03 00:59:13,1063520
2025-09-03 00:59:14,1063534
2025-09-03 00:59:14,1063594
2025-09-03 00:59:14,1063617
2025-09-03 00:59:14,1063751
2025-09-03 00:59:14,1063798
2025-09-03 00:59:14,1063894
2025-09-03 00:59:14,1063960
2025-09-03 00:59:14,1063989
2025-09-03 00:59:14,1064097
2025-09-03 00:59:14,1064123
2025-09-03 00:59:14,1063994
2025-09-03 00:59:14,1063974
2025-09-03 00:59:14,1063936
2025-09-03 00:59:14,1063626
2025-09-03 00:59:14,1063320
2025-09-03 00:59:14,1062998
2025-09-03 00:59:14,1062648
2025-09-03 00:59:14,1062248
2025-09-03 00:59:14,1061895
2025-09-03 00:59:14,1061546
2025-09-03 00:59:14,1061236
2025-09-03 00:59:14,1061033
2025-09-03 00:59:14,1060907
2025-09-03 00:59:14,1060823
2025-09-03 00:59:14,1060664
2025-09-03 00:59:14,1060586
2025-09-03 00:59:14,1060535
2025-09-03 00:59:14,1060543
2025-09-03 00:59:14,1060494
2025-09-03 00:59:14,1060490
2025-09-03 00:59:14,1060500
2025-09-03 00:59:14,1060462
2025-09-03 00:59:14,1060416
2025-09-03 00:59:14,1060367
2025-09-03 00:59:14,1060389
2025-09-03 00:59:14,1060327
2025-09-03 00:59:14,1060277
2025-09-03 00:59:14,1060341
2025-09-03 00:59:14,1060306
2025-09-03 00:59:14,1060413
2025-09-03 00:59:14,1060474
2025-09-03 00:59:14,1060432
2025-09-03 00:59:14,1060582
2025-09-03 00:59:14,1060511
2025-09-03 00:59:14,1060634
2025-09-03 00:59:14,1060637
2025-09-03 00:59:14,1060671
2025-09-03 00:59:14,1060738
2025-09-03 00:59:14,1060665
2025-09-03 00:59:14,1060638
2025-09-03 00:59:14,1060651
2025-09-03 00:59:14,1060588
2025-09-03 00:59:14,1060665
2025-09-03 00:59:14,1060611
2025-09-03 00:59:14,1060667
2025-09-03 00:59:14,1060766
2025-09-03 00:59:14,1060790
2025-09-03 00:59:14,1060885
2025-09-03 00:59:14,1060943
2025-09-03 00:59:14,1060933
2025-09-03 00:59:14,1060996
2025-09-03 00:59:14,1061014
2025-09-03 00:59:14,1061137
2025-09-03 00:59:14,1061208
2025-09-03 00:59:14,1061356
2025-09-03 00:59:14,1061398
2025-09-03 00:59:14,1061459
2025-09-03 00:59:14,1061609
2025-09-03 00:59:14,1061728
2025-09-03 00:59:14,1061677
2025-09-03 00:59:14,1061784
2025-09-03 00:59:14,1061799
2025-09-03 00:59:14,1061941
2025-09-03 00:59:14,1061938
2025-09-03 00:59:14,1061937
2025-09-03 00:59:14,1062022
2025-09-03 00:59:14,1062129
2025-09-03 00:59:14,1062217
2025-09-03 00:59:14,1062346
2025-09-03 00:59:14,1062383
2025-09-03 00:59:14,1062508
2025-09-03 00:59:14,1062592
2025-09-03 00:59:14,1062675
2025-09-03 00:59:14,1062794
2025-09-03 00:59:14,1062828
2025-09-03 00:59:14,1062915
2025-09-03 00:59:14,1062912
2025-09-03 00:59:14,1062936
2025-09-03 00:59:14,1062927
2025-09-03 00:59:14,1062758
2025-09-03 00:59:14,1062509
2025-09-03 00:59:14,1062213
2025-09-03 00:59:14,1061844
2025-09-03 00:59:14,1061453
2025-09-03 00:59:14,1061061
2025-09-03 00:59:14,1060762
2025-09-03 00:59:14,1060429
2025-09-03 00:59:14,1060255
2025-09-03 00:59:14,1059976
2025-09-03 00:59:15,1059837
2025-09-03 00:59:15,1059809
2025-09-03 00:59:15,1059678
2025-09-03 00:59:15,1059719
2025-09-03 00:59:15,1059656
2025-09-03 00:59:15,1059657
2025-09-03 00:59:15,1059710
2025-09-03 00:59:15,1059761
2025-09-03 00:59:15,1059821
2025-09-03 00:59:15,1059783
2025-09-03 00:59:15,1059754
2025-09-03 00:59:15,1059731
2025-09-03 00:59:15,1059703
2025-09-03 00:59:15,1059657
2025-09-03 00:59:15,1059598
2025-09-03 00:59:15,1059816
2025-09-03 00:59:15,1060142
2025-09-03 00:59:15,1060521
2025-09-03 00:59:15,1060612
2025-09-03 00:59:15,1060627
2025-09-03 00:59:15,1060473
2025-09-03 00:59:15,1060234
2025-09-03 00:59:15,1060016
2025-09-03 00:59:15,1059831
2025-09-03 00:59:15,1059821
2025-09-03 00:59:15,1059844
2025-09-03 00:59:15,1059944
2025-09-03 00:59:15,1059957
2025-09-03 00:59:15,1059774
2025-09-03 00:59:15,1059687
2025-09-03 00:59:15,1059566
2025-09-03 00:59:15,1059529
2025-09-03 00:59:15,1059521
2025-09-03 00:59:15,1059833
2025-09-03 00:59:15,1059955
2025-09-03 00:59:15,1060000
2025-09-03 00:59:15,1060025
2025-09-03 00:59:15,1059956
2025-09-03 00:59:15,1059796
2025-09-03 00:59:15,1059762
2025-09-03 00:59:15,1059810
2025-09-03 00:59:15,1059697
2025-09-03 00:59:15,1059675
2025-09-03 00:59:15,1059586
2025-09-03 00:59:15,1059680
2025-09-03 00:59:15,1059749
2025-09-03 00:59:15,1059779
2025-09-03 00:59:15,1059880
2025-09-03 00:59:15,1059782
2025-09-03 00:59:15,1059759
2025-09-03 00:59:15,1059848
2025-09-03 00:59:15,1059850
2025-09-03 00:59:15,1059869
2025-09-03 00:59:15,1059736
2025-09-03 00:59:15,1059555
2025-09-03 00:59:15,1059549
2025-09-03 00:59:15,1059456
2025-09-03 00:59:15,1059401
2025-09-03 00:59:15,1059579
2025-09-03 00:59:15,1059663
2025-09-03 00:59:15,1059693
2025-09-03 00:59:15,1059616
2025-09-03 00:59:15,1059589
2025-09-03 00:59:15,1059701
2025-09-03 00:59:15,1059637
2025-09-03 00:59:15,1059367
2025-09-03 00:59:15,1059084
2025-09-03 00:59:15,1058558
2025-09-03 00:59:15,1058024
2025-09-03 00:59:15,1057379
2025-09-03 00:59:15,1056929
2025-09-03 00:59:15,1056528
2025-09-03 00:59:15,1056162
2025-09-03 00:59:15,1055713
2025-09-03 00:59:15,1055457
2025-09-03 00:59:15,1055152
2025-09-03 00:59:15,1054913
2025-09-03 00:59:15,1054615
2025-09-03 00:59:15,1054682
2025-09-03 00:59:15,1054633
2025-09-03 00:59:15,1054619
2025-09-03 00:59:15,1054695
2025-09-03 00:59:15,1054676
2025-09-03 00:59:15,1054393
2025-09-03 00:59:15,1054260
2025-09-03 00:59:15,1054043
2025-09-03 00:59:15,1053696
2025-09-03 00:59:15,1053578
2025-09-03 00:59:15,1053404
2025-09-03 00:59:15,1053269
2025-09-03 00:59:15,1053158
2025-09-03 00:59:15,1053100
2025-09-03 00:59:15,1052906
2025-09-03 00:59:15,1052952
2025-09-03 00:59:15,1052822
2025-09-03 00:59:15,1052801
2025-09-03 00:59:15,1052790
2025-09-03 00:59:15,1052912
2025-09-03 00:59:15,1052872
2025-09-03 00:59:15,1052773
2025-09-03 00:59:16,1052681
2025-09-03 00:59:16,1052523
2025-09-03 00:59:16,1052361
2025-09-03 00:59:16,1052168
2025-09-03 00:59:16,1051905
2025-09-03 00:59:16,1051734
2025-09-03 00:59:16,1051547
2025-09-03 00:59:16,1051469
2025-09-03 00:59:16,1051318
2025-09-03 00:59:16,1051314
2025-09-03 00:59:16,1051481
2025-09-03 00:59:16,1051482
2025-09-03 00:59:16,1051398
2025-09-03 00:59:16,1051531
2025-09-03 00:59:16,1051561
2025-09-03 00:59:16,1051672
2025-09-03 00:59:16,1051595
2025-09-03 00:59:16,1051479
2025-09-03 00:59:16,1051541
2025-09-03 00:59:16,1051489
2025-09-03 00:59:16,1051395
2025-09-03 00:59:16,1051229
2025-09-03 00:59:16,1051172
2025-09-03 00:59:16,1051065
2025-09-03 00:59:16,1050867
2025-09-03 00:59:16,1050850
2025-09-03 00:59:16,1050729
2025-09-03 00:59:16,1050787
2025-09-03 00:59:16,1050883
2025-09-03 00:59:16,1050744
2025-09-03 00:59:16,1050607
2025-09-03 00:59:16,1050619
2025-09-03 00:59:16,1050584
2025-09-03 00:59:16,1050568
2025-09-03 00:59:16,1050734
2025-09-03 00:59:16,1050785
2025-09-03 00:59:16,1050702
2025-09-03 00:59:16,1050686
2025-09-03 00:59:16,1050569
2025-09-03 00:59:16,1050555
2025-09-03 00:59:16,1050433
2025-09-03 00:59:16,1050456
2025-09-03 00:59:16,1050365
2025-09-03 00:59:16,1050264
2025-09-03 00:59:16,1050232
2025-09-03 00:59:16,1050152
2025-09-03 00:59:16,1050177
2025-09-03 00:59:16,1050178
2025-09-03 00:59:16,1050190
2025-09-03 00:59:16,1050146
2025-09-03 00:59:16,1049994
2025-09-03 00:59:16,1050020
2025-09-03 00:59:16,1049979
2025-09-03 00:59:16,1050034
2025-09-03 00:59:16,1050054
2025-09-03 00:59:16,1049906
2025-09-03 00:59:16,1049804
2025-09-03 00:59:16,1049772
2025-09-03 00:59:16,1049782
2025-09-03 00:59:16,1049767
2025-09-03 00:59:16,1049871
2025-09-03 00:59:16,1049749
2025-09-03 00:59:16,1049471
2025-09-03 00:59:16,1049121
2025-09-03 00:59:16,1048563
2025-09-03 00:59:16,1048009
2025-09-03 00:59:16,1047532
2025-09-03 00:59:16,1046898
2025-09-03 00:59:16,1046394
2025-09-03 00:59:16,1046045
2025-09-03 00:59:16,1045710
2025-09-03 00:59:16,1045550
2025-09-03 00:59:16,1045484
2025-09-03 00:59:16,1045376
2025-09-03 00:59:16,1045461
2025-09-03 00:59:16,1045269
2025-09-03 00:59:16,1045215
2025-09-03 00:59:16,1045129
2025-09-03 00:59:16,1044913
2025-09-03 00:59:16,1044825
2025-09-03 00:59:16,1044703
2025-09-03 00:59:16,1044560
2025-09-03 00:59:16,1044395
2025-09-03 00:59:16,1044283
2025-09-03 00:59:16,1044179
2025-09-03 00:59:16,1044126
2025-09-03 00:59:16,1044065
2025-09-03 00:59:16,1044056
2025-09-03 00:59:16,1043987
2025-09-03 00:59:16,1043882
2025-09-03 00:59:16,1043628
2025-09-03 00:59:16,1043466
2025-09-03 00:59:16,1043410
2025-09-03 00:59:16,1043398
2025-09-03 00:59:16,1043430
2025-09-03 00:59:16,1043627
2025-09-03 00:59:16,1043699
2025-09-03 00:59:16,1043521
2025-09-03 00:59:16,1043317
2025-09-03 00:59:16,1043109
2025-09-03 00:59:17,1043062
2025-09-03 00:59:17,1042938
2025-09-03 00:59:17,1042722
2025-09-03 00:59:17,1042531
2025-09-03 00:59:17,1042424
2025-09-03 00:59:17,1042362
2025-09-03 00:59:17,1042330
2025-09-03 00:59:17,1042346
2025-09-03 00:59:17,1042289
2025-09-03 00:59:17,1042270
2025-09-03 00:59:17,1042059
2025-09-03 00:59:17,1041907
2025-09-03 00:59:17,1041948
2025-09-03 00:59:17,1042040
2025-09-03 00:59:17,1042123
2025-09-03 00:59:17,1042299
2025-09-03 00:59:17,1042571
2025-09-03 00:59:17,1042778
2025-09-03 00:59:17,1042716
2025-09-03 00:59:17,1042597
2025-09-03 00:59:17,1042472
2025-09-03 00:59:17,1042313
2025-09-03 00:59:17,1042253
2025-09-03 00:59:17,1042151
2025-09-03 00:59:17,1042013
2025-09-03 00:59:17,1042105
2025-09-03 00:59:17,1042133
2025-09-03 00:59:17,1042214
2025-09-03 00:59:17,1042396
2025-09-03 00:59:17,1042489
2025-09-03 00:59:17,1042399
2025-09-03 00:59:17,1042251
2025-09-03 00:59:17,1042084
2025-09-03 00:59:17,1042029
2025-09-03 00:59:17,1042110
2025-09-03 00:59:17,1042245
2025-09-03 00:59:17,1042532
2025-09-03 00:59:17,1042450
2025-09-03 00:59:17,1042369
2025-09-03 00:59:17,1042510
2025-09-03 00:59:17,1042589
2025-09-03 00:59:17,1042448
2025-09-03 00:59:17,1042317
2025-09-03 00:59:17,1042346
2025-09-03 00:59:17,1042216
2025-09-03 00:59:17,1042243
2025-09-03 00:59:17,1042312
2025-09-03 00:59:17,1042301
2025-09-03 00:59:17,1042327
2025-09-03 00:59:17,1042290
2025-09-03 00:59:17,1042415
2025-09-03 00:59:17,1042515
2025-09-03 00:59:17,1042674
2025-09-03 00:59:17,1042573
2025-09-03 00:59:17,1042524
2025-09-03 00:59:17,1042326
2025-09-03 00:59:17,1042164
2025-09-03 00:59:17,1042085
2025-09-03 00:59:17,1042005
2025-09-03 00:59:17,1042038
2025-09-03 00:59:17,1041629
2025-09-03 00:59:17,1041179
2025-09-03 00:59:17,1040714
2025-09-03 00:59:17,1040334
2025-09-03 00:59:17,1039861
2025-09-03 00:59:17,1039407
2025-09-03 00:59:17,1039092
2025-09-03 00:59:17,1038783
2025-09-03 00:59:17,1038587
2025-09-03 00:59:17,1038317
2025-09-03 00:59:17,1038087
2025-09-03 00:59:17,1037982
2025-09-03 00:59:17,1037822
2025-09-03 00:59:17,1037792
2025-09-03 00:59:17,1037892
2025-09-03 00:59:17,1037750
2025-09-03 00:59:17,1037690
2025-09-03 00:59:17,1037532
2025-09-03 00:59:17,1037504
2025-09-03 00:59:17,1037617
2025-09-03 00:59:17,1037570
2025-09-03 00:59:17,1037660
2025-09-03 00:59:17,1037591
2025-09-03 00:59:17,1037701
2025-09-03 00:59:17,1037742
2025-09-03 00:59:17,1037642
2025-09-03 00:59:17,1037574
2025-09-03 00:59:17,1037673
2025-09-03 00:59:17,1037717
2025-09-03 00:59:17,1037649
2025-09-03 00:59:17,1037653
2025-09-03 00:59:17,1037583
2025-09-03 00:59:17,1037639
2025-09-03 00:59:17,1037561
2025-09-03 00:59:17,1037580
2025-09-03 00:59:17,1037554
2025-09-03 00:59:17,1037441
2025-09-03 00:59:17,1037192
2025-09-03 00:59:17,1036960
2025-09-03 00:59:17,1036951
2025-09-03 00:59:18,1037067
2025-09-03 00:59:18,1037034
2025-09-03 00:59:18,1037007
2025-09-03 00:59:18,1036971
2025-09-03 00:59:18,1037063
2025-09-03 00:59:18,1036973
2025-09-03 00:59:18,1036867
2025-09-03 00:59:18,1036945
2025-09-03 00:59:18,1036947
2025-09-03 00:59:18,1036901
2025-09-03 00:59:18,1036851
2025-09-03 00:59:18,1036990
2025-09-03 00:59:18,1037086
2025-09-03 00:59:18,1037115
2025-09-03 00:59:18,1037308
2025-09-03 00:59:18,1037371
2025-09-03 00:59:18,1037476
2025-09-03 00:59:18,1037484
2025-09-03 00:59:18,1037323
2025-09-03 00:59:18,1037226
2025-09-03 00:59:18,1037115
2025-09-03 00:59:18,1037208
2025-09-03 00:59:18,1037234
2025-09-03 00:59:18,1037210
2025-09-03 00:59:18,1037144
2025-09-03 00:59:18,1037267
2025-09-03 00:59:18,1037331
2025-09-03 00:59:18,1037418
2025-09-03 00:59:18,1037520
2025-09-03 00:59:18,1037558
2025-09-03 00:59:18,1037577
2025-09-03 00:59:18,1037621
2025-09-03 00:59:18,1037762
2025-09-03 00:59:18,1037866
2025-09-03 00:59:18,1037885
2025-09-03 00:59:18,1037878
2025-09-03 00:59:18,1037947
2025-09-03 00:59:18,1038066
2025-09-03 00:59:18,1038272
2025-09-03 00:59:18,1038373
2025-09-03 00:59:18,1038464
2025-09-03 00:59:18,1038460
2025-09-03 00:59:18,1038470
2025-09-03 00:59:18,1038511
2025-09-03 00:59:18,1038481
2025-09-03 00:59:18,1038483
2025-09-03 00:59:18,1038481
2025-09-03 00:59:18,1038522
2025-09-03 00:59:18,1038446
2025-09-03 00:59:18,1038283
2025-09-03 00:59:18,1038186
2025-09-03 00:59:18,1037986
2025-09-03 00:59:18,1037762
2025-09-03 00:59:18,1037465
2025-09-03 00:59:18,1037209
2025-09-03 00:59:18,1036936
2025-09-03 00:59:18,1036452
2025-09-03 00:59:18,1036245
2025-09-03 00:59:18,1036060
2025-09-03 00:59:18,1035859
2025-09-03 00:59:18,1035798
2025-09-03 00:59:18,1035700
2025-09-03 00:59:18,1035700
2025-09-03 00:59:18,1035684
2025-09-03 00:59:18,1035741
2025-09-03 00:59:18,1035756
2025-09-03 00:59:18,1035686
2025-09-03 00:59:18,1035688
2025-09-03 00:59:18,1035586
2025-09-03 00:59:18,1035544
2025-09-03 00:59:18,1035433
2025-09-03 00:59:18,1035408
2025-09-03 00:59:18,1035494
2025-09-03 00:59:18,1035690
2025-09-03 00:59:18,1035783
2025-09-03 00:59:18,1035874
2025-09-03 00:59:18,1036117
2025-09-03 00:59:18,1036299
2025-09-03 00:59:18,1036504
2025-09-03 00:59:18,1036708
2025-09-03 00:59:18,1036970
2025-09-03 00:59:18,1037002
2025-09-03 00:59:18,1037027
2025-09-03 00:59:18,1037000
2025-09-03 00:59:18,1036931
2025-09-03 00:59:18,1036998
2025-09-03 00:59:18,1037036
2025-09-03 00:59:18,1037053
2025-09-03 00:59:18,1036990
2025-09-03 00:59:18,1037045
2025-09-03 00:59:18,1037205
2025-09-03 00:59:18,1037203
2025-09-03 00:59:18,1037125
2025-09-03 00:59:18,1037021
2025-09-03 00:59:18,1036955
2025-09-03 00:59:18,1036941
2025-09-03 00:59:18,1036874
2025-09-03 00:59:18,1036775
2025-09-03 00:59:18,1036716
2025-09-03 00:59:18,1036731
2025-09-03 00:59:19,1036689
2025-09-03 00:59:19,1036592
2025-09-03 00:59:19,1036538
2025-09-03 00:59:19,1036468
2025-09-03 00:59:19,1036515
2025-09-03 00:59:19,1036466
2025-09-03 00:59:19,1036521
2025-09-03 00:59:19,1036500
2025-09-03 00:59:19,1036577
2025-09-03 00:59:19,1036736
2025-09-03 00:59:19,1036820
2025-09-03 00:59:19,1036976
2025-09-03 00:59:19,1037157
2025-09-03 00:59:19,1037235
2025-09-03 00:59:19,1037379
2025-09-03 00:59:19,1037468
2025-09-03 00:59:19,1037610
2025-09-03 00:59:19,1037631
2025-09-03 00:59:19,1037727
2025-09-03 00:59:19,1037775
2025-09-03 00:59:19,1037885
2025-09-03 00:59:19,1037894
2025-09-03 00:59:19,1038077
2025-09-03 00:59:19,1038028
2025-09-03 00:59:19,1038225
2025-09-03 00:59:19,1038459
2025-09-03 00:59:19,1038610
2025-09-03 00:59:19,1038610
2025-09-03 00:59:19,1038700
2025-09-03 00:59:19,1038755
2025-09-03 00:59:19,1038763
2025-09-03 00:59:19,1038859
2025-09-03 00:59:19,1038909
2025-09-03 00:59:19,1039038
2025-09-03 00:59:19,1039095
2025-09-03 00:59:19,1039194
2025-09-03 00:59:19,1039281
2025-09-03 00:59:19,1039331
2025-09-03 00:59:19,1039264
2025-09-03 00:59:19,1039037
2025-09-03 00:59:19,1038594
2025-09-03 00:59:19,1038126
2025-09-03 00:59:19,1037599
2025-09-03 00:59:19,1037255
2025-09-03 00:59:19,1036886
2025-09-03 00:59:19,1036591
2025-09-03 00:59:19,1036337
2025-09-03 00:59:19,1036158
2025-09-03 00:59:19,1036062
2025-09-03 00:59:19,1036081
2025-09-03 00:59:19,1035981
2025-09-03 00:59:19,1035809
2025-09-03 00:59:19,1035757
2025-09-03 00:59:19,1035779
2025-09-03 00:59:19,1035767
2025-09-03 00:59:19,1035860
2025-09-03 00:59:19,1035991
2025-09-03 00:59:19,1035936
2025-09-03 00:59:19,1036024
2025-09-03 00:59:19,1036076
2025-09-03 00:59:19,1036135
2025-09-03 00:59:19,1036192
2025-09-03 00:59:19,1036201
2025-09-03 00:59:19,1036200
2025-09-03 00:59:19,1036272
2025-09-03 00:59:19,1036283
2025-09-03 00:59:19,1036412
2025-09-03 00:59:19,1036518
2025-09-03 00:59:19,1036654
2025-09-03 00:59:19,1036701
2025-09-03 00:59:19,1036873
2025-09-03 00:59:19,1036978
2025-09-03 00:59:19,1036984
2025-09-03 00:59:19,1037041
2025-09-03 00:59:19,1037130
2025-09-03 00:59:19,1037235
2025-09-03 00:59:19,1037356
2025-09-03 00:59:19,1037355
2025-09-03 00:59:19,1037295
2025-09-03 00:59:19,1037254
2025-09-03 00:59:19,1037254
2025-09-03 00:59:19,1037238
2025-09-03 00:59:19,1037269
2025-09-03 00:59:19,1037191
2025-09-03 00:59:19,1037262
2025-09-03 00:59:19,1037214
2025-09-03 00:59:19,1037261
2025-09-03 00:59:19,1037396
2025-09-03 00:59:19,1037293
2025-09-03 00:59:19,1037356
2025-09-03 00:59:19,1037381
2025-09-03 00:59:19,1037470
2025-09-03 00:59:19,1037498
2025-09-03 00:59:19,1037633
2025-09-03 00:59:19,1037723
2025-09-03 00:59:19,1037978
2025-09-03 00:59:19,1038181
2025-09-03 00:59:19,1038261
2025-09-03 00:59:19,1038293
2025-09-03 00:59:19,1038447
2025-09-03 00:59:20,1038428
2025-09-03 00:59:20,1038408
2025-09-03 00:59:20,1038529
2025-09-03 00:59:20,1038644
2025-09-03 00:59:20,1038740
2025-09-03 00:59:20,1038783
2025-09-03 00:59:20,1038786
2025-09-03 00:59:20,1038786
2025-09-03 00:59:20,1038867
2025-09-03 00:59:20,1039028
2025-09-03 00:59:20,1039240
2025-09-03 00:59:20,1039237
2025-09-03 00:59:20,1039263
2025-09-03 00:59:20,1039428
2025-09-03 00:59:20,1039587
2025-09-03 00:59:20,1039776
2025-09-03 00:59:20,1039760
2025-09-03 00:59:20,1039702
2025-09-03 00:59:20,1039615
2025-09-03 00:59:20,1039291
2025-09-03 00:59:20,1039048
2025-09-03 00:59:20,1038633
2025-09-03 00:59:20,1038215
2025-09-03 00:59:20,1037913
2025-09-03 00:59:20,1037649
2025-09-03 00:59:20,1037441
2025-09-03 00:59:20,1037154
2025-09-03 00:59:20,1037063
2025-09-03 00:59:20,1036977
2025-09-03 00:59:20,1037064
2025-09-03 00:59:20,1037007
2025-09-03 00:59:20,1037089
2025-09-03 00:59:20,1037035
2025-09-03 00:59:20,1036968
2025-09-03 00:59:20,1036829
2025-09-03 00:59:20,1036820
2025-09-03 00:59:20,1036798
2025-09-03 00:59:20,1036748
2025-09-03 00:59:20,1036709
2025-09-03 00:59:20,1036672
2025-09-03 00:59:20,1036704
2025-09-03 00:59:20,1036842
2025-09-03 00:59:20,1037020
2025-09-03 00:59:20,1037226
2025-09-03 00:59:20,1037328
2025-09-03 00:59:20,1037400
2025-09-03 00:59:20,1037468
2025-09-03 00:59:20,1037512
2025-09-03 00:59:20,1037715
2025-09-03 00:59:20,1037760
2025-09-03 00:59:20,1037783
2025-09-03 00:59:20,1037873
2025-09-03 00:59:20,1037760
2025-09-03 00:59:20,1037821
2025-09-03 00:59:20,1037730
2025-09-03 00:59:20,1037662
2025-09-03 00:59:20,1037761
2025-09-03 00:59:20,1037736
2025-09-03 00:59:20,1037770
2025-09-03 00:59:20,1037720
2025-09-03 00:59:20,1037719
2025-09-03 00:59:20,1037787
2025-09-03 00:59:20,1037713
2025-09-03 00:59:20,1037968
2025-09-03 00:59:20,1038135
2025-09-03 00:59:20,1038235
2025-09-03 00:59:20,1038309
2025-09-03 00:59:20,1038487
2025-09-03 00:59:20,1038455
2025-09-03 00:59:20,1038595
2025-09-03 00:59:20,1038693
2025-09-03 00:59:20,1038799
2025-09-03 00:59:20,1038872
2025-09-03 00:59:20,1038906
2025-09-03 00:59:20,1038942
2025-09-03 00:59:20,1039047
2025-09-03 00:59:20,1039181
2025-09-03 00:59:20,1039283
2025-09-03 00:59:20,1039439
2025-09-03 00:59:20,1039601
2025-09-03 00:59:20,1039605
2025-09-03 00:59:20,1039677
2025-09-03 00:59:20,1039743
2025-09-03 00:59:20,1039917
2025-09-03 00:59:20,1039911
2025-09-03 00:59:20,1039977
2025-09-03 00:59:20,1039941
2025-09-03 00:59:20,1040018
2025-09-03 00:59:20,1040202
2025-09-03 00:59:20,1040386
2025-09-03 00:59:20,1040444
2025-09-03 00:59:20,1040520
2025-09-03 00:59:20,1040533
2025-09-03 00:59:20,1040625
2025-09-03 00:59:20,1040726
2025-09-03 00:59:20,1040807
2025-09-03 00:59:20,1040976
2025-09-03 00:59:20,1041175
2025-09-03 00:59:20,1041062
2025-09-03 00:59:21,1040890
2025-09-03 00:59:21,1040446
2025-09-03 00:59:21,1040004
2025-09-03 00:59:21,1039490
2025-09-03 00:59:21,1039134
2025-09-03 00:59:21,1039011
2025-09-03 00:59:21,1038525
2025-09-03 00:59:21,1038208
2025-09-03 00:59:21,1037915
2025-09-03 00:59:21,1037684
2025-09-03 00:59:21,1037539
2025-09-03 00:59:21,1037441
2025-09-03 00:59:21,1037285
2025-09-03 00:59:21,1037369
2025-09-03 00:59:21,1037353
2025-09-03 00:59:21,1037415
2025-09-03 00:59:21,1037415
2025-09-03 00:59:21,1037372
2025-09-03 00:59:21,1037417
2025-09-03 00:59:21,1037449
2025-09-03 00:59:21,1037433
2025-09-03 00:59:21,1037297
2025-09-03 00:59:21,1037200
2025-09-03 00:59:21,1036992
2025-09-03 00:59:21,1036896
2025-09-03 00:59:21,1036709
2025-09-03 00:59:21,1036686
2025-09-03 00:59:21,1036756
2025-09-03 00:59:21,1036815
2025-09-03 00:59:21,1036938
2025-09-03 00:59:21,1037064
2025-09-03 00:59:21,1036999
2025-09-03 00:59:21,1036915
2025-09-03 00:59:21,1036693
2025-09-03 00:59:21,1036499
2025-09-03 00:59:21,1036186
2025-09-03 00:59:21,1036129
2025-09-03 00:59:21,1035855
2025-09-03 00:59:21,1035753
2025-09-03 00:59:21,1035560
2025-09-03 00:59:21,1035345
2025-09-03 00:59:21,1035536
2025-09-03 00:59:21,1035536
2025-09-03 00:59:21,1035639
2025-09-03 00:59:21,1035433
2025-09-03 00:59:21,1035296
2025-09-03 00:59:21,1035290
2025-09-03 00:59:21,1035505
2025-09-03 00:59:21,1035761
2025-09-03 00:59:21,1036040
2025-09-03 00:59:21,1036311
2025-09-03 00:59:21,1036579
2025-09-03 00:59:21,1036846
2025-09-03 00:59:21,1037369
2025-09-03 00:59:21,1037630
2025-09-03 00:59:21,1037774
2025-09-03 00:59:21,1038035
2025-09-03 00:59:21,1038258
2025-09-03 00:59:21,1038507
2025-09-03 00:59:21,1038575
2025-09-03 00:59:21,1038723
2025-09-03 00:59:21,1038719
2025-09-03 00:59:21,1038950
2025-09-03 00:59:21,1039000
2025-09-03 00:59:21,1039211
2025-09-03 00:59:21,1039372
2025-09-03 00:59:21,1039566
2025-09-03 00:59:21,1039779
2025-09-03 00:59:21,1039973
2025-09-03 00:59:21,1040136
2025-09-03 00:59:21,1040356
2025-09-03 00:59:21,1040544
2025-09-03 00:59:21,1040837
2025-09-03 00:59:21,1040890
2025-09-03 00:59:21,1041123
2025-09-03 00:59:21,1041257
2025-09-03 00:59:21,1041364
2025-09-03 00:59:21,1041589
2025-09-03 00:59:21,1041776
2025-09-03 00:59:21,1041984
2025-09-03 00:59:21,1042058
2025-09-03 00:59:21,1042093
2025-09-03 00:59:21,1042017
2025-09-03 00:59:21,1041894
2025-09-03 00:59:21,1041416
2025-09-03 00:59:21,1041165
2025-09-03 00:59:21,1040841
2025-09-03 00:59:21,1040553
2025-09-03 00:59:21,1040445
2025-09-03 00:59:21,1040279
2025-09-03 00:59:21,1040125
2025-09-03 00:59:21,1040044
2025-09-03 00:59:21,1040040
2025-09-03 00:59:21,1039929
2025-09-03 00:59:21,1039996
2025-09-03 00:59:21,1039904
2025-09-03 00:59:21,1040013
2025-09-03 00:59:21,1040112
2025-09-03 00:59:21,1040035
2025-09-03 00:59:21,1040058
2025-09-03 00:59:22,1040293
2025-09-03 00:59:22,1040263
2025-09-03 00:59:22,1040446
2025-09-03 00:59:22,1040517
2025-09-03 00:59:22,1040566
2025-09-03 00:59:22,1040674
2025-09-03 00:59:22,1040766
2025-09-03 00:59:22,1040930
2025-09-03 00:59:22,1041064
2025-09-03 00:59:22,1041143
2025-09-03 00:59:22,1041325
2025-09-03 00:59:22,1041384
2025-09-03 00:59:22,1041460
2025-09-03 00:59:22,1041589
2025-09-03 00:59:22,1041576
2025-09-03 00:59:22,1041604
2025-09-03 00:59:22,1041786
2025-09-03 00:59:22,1041749
2025-09-03 00:59:22,1041807
2025-09-03 00:59:22,1041703
2025-09-03 00:59:22,1041762
2025-09-03 00:59:22,1041740
2025-09-03 00:59:22,1041706
2025-09-03 00:59:22,1041818
2025-09-03 00:59:22,1041933
2025-09-03 00:59:22,1041966
2025-09-03 00:59:22,1041997
2025-09-03 00:59:22,1042175
2025-09-03 00:59:22,1042240
2025-09-03 00:59:22,1042243
2025-09-03 00:59:22,1042431
2025-09-03 00:59:22,1042395
2025-09-03 00:59:22,1042404
2025-09-03 00:59:22,1042552
2025-09-03 00:59:22,1042634
2025-09-03 00:59:22,1042753
2025-09-03 00:59:22,1042816
2025-09-03 00:59:22,1042968
2025-09-03 00:59:22,1043021
2025-09-03 00:59:22,1043177
2025-09-03 00:59:22,1043401
2025-09-03 00:59:22,1043495
2025-09-03 00:59:22,1043563
2025-09-03 00:59:22,1043739
2025-09-03 00:59:22,1043812
2025-09-03 00:59:22,1043961
2025-09-03 00:59:22,1044026
2025-09-03 00:59:22,1044066
2025-09-03 00:59:22,1044103
2025-09-03 00:59:22,1044263
2025-09-03 00:59:22,1044323
2025-09-03 00:59:22,1044384
2025-09-03 00:59:22,1044494
2025-09-03 00:59:22,1044584
2025-09-03 00:59:22,1044722
2025-09-03 00:59:22,1044710
2025-09-03 00:59:22,1044676
2025-09-03 00:59:22,1044526
2025-09-03 00:59:22,1044097
2025-09-03 00:59:22,1043627
2025-09-03 00:59:22,1043250
2025-09-03 00:59:22,1042811
2025-09-03 00:59:22,1042419
2025-09-03 00:59:22,1042095
2025-09-03 00:59:22,1041729
2025-09-03 00:59:22,1041535
2025-09-03 00:59:22,1041377
2025-09-03 00:59:22,1041418
2025-09-03 00:59:22,1041378
2025-09-03 00:59:22,1041414
2025-09-03 00:59:22,1041436
2025-09-03 00:59:22,1041483
2025-09-03 00:59:22,1041641
2025-09-03 00:59:22,1041701
2025-09-03 00:59:22,1041755
2025-09-03 00:59:22,1041871
2025-09-03 00:59:22,1041856
2025-09-03 00:59:22,1041997
2025-09-03 00:59:22,1042066
2025-09-03 00:59:22,1042154
2025-09-03 00:59:22,1042180
2025-09-03 00:59:22,1042119
2025-09-03 00:59:22,1042297
2025-09-03 00:59:22,1042288
2025-09-03 00:59:22,1042460
2025-09-03 00:59:22,1042548
2025-09-03 00:59:22,1042737
2025-09-03 00:59:22,1042783
2025-09-03 00:59:22,1043031
2025-09-03 00:59:22,1043000
2025-09-03 00:59:22,1043131
2025-09-03 00:59:22,1043024
2025-09-03 00:59:22,1043120
2025-09-03 00:59:22,1043225
2025-09-03 00:59:22,1043197
2025-09-03 00:59:22,1043239
2025-09-03 00:59:22,1043262
2025-09-03 00:59:22,1043337
2025-09-03 00:59:22,1043426
2025-09-03 00:59:22,1043440
2025-09-03 00:59:23,1043441
2025-09-03 00:59:23,1043516
2025-09-03 00:59:23,1043576
2025-09-03 00:59:23,1043766
2025-09-03 00:59:23,1043881
2025-09-03 00:59:23,1044031
2025-09-03 00:59:23,1044172
2025-09-03 00:59:23,1044360
2025-09-03 00:59:23,1044416
2025-09-03 00:59:23,1044434
2025-09-03 00:59:23,1044636
2025-09-03 00:59:23,1044739
2025-09-03 00:59:23,1044810
2025-09-03 00:59:23,1044883
2025-09-03 00:59:23,1044970
2025-09-03 00:59:23,1045138
2025-09-03 00:59:23,1045264
2025-09-03 00:59:23,1045410
2025-09-03 00:59:23,1045592
2025-09-03 00:59:23,1045756
2025-09-03 00:59:23,1045827
2025-09-03 00:59:23,1045972
2025-09-03 00:59:23,1046046
2025-09-03 00:59:23,1046161
2025-09-03 00:59:23,1046380
2025-09-03 00:59:23,1046521
2025-09-03 00:59:23,1046553
2025-09-03 00:59:23,1046723
2025-09-03 00:59:23,1046883
2025-09-03 00:59:23,1046958
2025-09-03 00:59:23,1047050
2025-09-03 00:59:23,1047137
2025-09-03 00:59:23,1047080
2025-09-03 00:59:23,1046992
2025-09-03 00:59:23,1046740
2025-09-03 00:59:23,1046404
2025-09-03 00:59:23,1045872
2025-09-03 00:59:23,1045465
2025-09-03 00:59:23,1045223
2025-09-03 00:59:23,1044983
2025-09-03 00:59:23,1044872
2025-09-03 00:59:23,1044803
2025-09-03 00:59:23,1044713
2025-09-03 00:59:23,1044746
2025-09-03 00:59:23,1044719
2025-09-03 00:59:23,1044783
2025-09-03 00:59:23,1044944
2025-09-03 00:59:23,1045071
2025-09-03 00:59:23,1045095
2025-09-03 00:59:23,1044990
2025-09-03 00:59:23,1044616
2025-09-03 00:59:23,1044400
2025-09-03 00:59:23,1044468
2025-09-03 00:59:23,1044658
2025-09-03 00:59:23,1044744
2025-09-03 00:59:23,1044986
2025-09-03 00:59:23,1045067
2025-09-03 00:59:23,1045470
2025-09-03 00:59:23,1046065
2025-09-03 00:59:23,1046695
2025-09-03 00:59:23,1047348
2025-09-03 00:59:23,1048008
2025-09-03 00:59:23,1048519
2025-09-03 00:59:23,1049173
2025-09-03 00:59:23,1049786
2025-09-03 00:59:23,1050299
2025-09-03 00:59:23,1050777
2025-09-03 00:59:23,1051390
2025-09-03 00:59:23,1052062
2025-09-03 00:59:23,1052971
2025-09-03 00:59:23,1053728
2025-09-03 00:59:23,1054569
2025-09-03 00:59:23,1055523
2025-09-03 00:59:23,1056299
2025-09-03 00:59:23,1056900
2025-09-03 00:59:23,1057311
2025-09-03 00:59:23,1057568
2025-09-03 00:59:23,1057734
2025-09-03 00:59:23,1057816
2025-09-03 00:59:23,1057708
2025-09-03 00:59:23,1057564
2025-09-03 00:59:23,1057285
2025-09-03 00:59:23,1056944
2025-09-03 00:59:23,1056609
2025-09-03 00:59:23,1056291
2025-09-03 00:59:23,1055871
2025-09-03 00:59:23,1055514
2025-09-03 00:59:23,1055162
2025-09-03 00:59:23,1054778
2025-09-03 00:59:23,1054562
2025-09-03 00:59:23,1054154
2025-09-03 00:59:23,1053818
2025-09-03 00:59:23,1053540
2025-09-03 00:59:23,1053156
2025-09-03 00:59:23,1052960
2025-09-03 00:59:23,1052577
2025-09-03 00:59:23,1052394
2025-09-03 00:59:23,1052139
2025-09-03 00:59:23,1051840
2025-09-03 00:59:23,1051510
2025-09-03 00:59:24,1051259
2025-09-03 00:59:24,1050971
2025-09-03 00:59:24,1050718
2025-09-03 00:59:24,1050349
2025-09-03 00:59:24,1049929
2025-09-03 00:59:24,1049283
2025-09-03 00:59:24,1048676
2025-09-03 00:59:24,1048000
2025-09-03 00:59:24,1047361
2025-09-03 00:59:24,1046743
2025-09-03 00:59:24,1046188
2025-09-03 00:59:24,1045777
2025-09-03 00:59:24,1045370
2025-09-03 00:59:24,1045071
2025-09-03 00:59:24,1044928
2025-09-03 00:59:24,1044733
2025-09-03 00:59:24,1044673
2025-09-03 00:59:24,1044563
2025-09-03 00:59:24,1044540
2025-09-03 00:59:24,1044478
2025-09-03 00:59:24,1044559
2025-09-03 00:59:24,1044394
2025-09-03 00:59:24,1044217
2025-09-03 00:59:24,1044170
2025-09-03 00:59:24,1043978
2025-09-03 00:59:24,1043900
2025-09-03 00:59:24,1043738
2025-09-03 00:59:24,1043601
2025-09-03 00:59:24,1043530
2025-09-03 00:59:24,1043467
2025-09-03 00:59:24,1043386
2025-09-03 00:59:24,1043394
2025-09-03 00:59:24,1043284
2025-09-03 00:59:24,1043205
2025-09-03 00:59:24,1043202
2025-09-03 00:59:24,1043058
2025-09-03 00:59:24,1042900
2025-09-03 00:59:24,1042797
2025-09-03 00:59:24,1042671
2025-09-03 00:59:24,1042596
2025-09-03 00:59:24,1042495
2025-09-03 00:59:24,1042423
2025-09-03 00:59:24,1042299
2025-09-03 00:59:24,1042219
2025-09-03 00:59:24,1042193
2025-09-03 00:59:24,1042198
2025-09-03 00:59:24,1042345
2025-09-03 00:59:24,1042276
2025-09-03 00:59:24,1042233
2025-09-03 00:59:24,1042201
2025-09-03 00:59:24,1042230
2025-09-03 00:59:24,1042236
2025-09-03 00:59:24,1042241
2025-09-03 00:59:24,1042285
2025-09-03 00:59:24,1042386
2025-09-03 00:59:24,1042325
2025-09-03 00:59:24,1042339
2025-09-03 00:59:24,1042319
2025-09-03 00:59:24,1042389
2025-09-03 00:59:24,1042377
2025-09-03 00:59:24,1042433
2025-09-03 00:59:24,1042492
2025-09-03 00:59:24,1042538
2025-09-03 00:59:24,1042561
2025-09-03 00:59:24,1042596
2025-09-03 00:59:24,1042665
2025-09-03 00:59:24,1042744
2025-09-03 00:59:24,1042735
2025-09-03 00:59:24,1042826
2025-09-03 00:59:24,1042964
2025-09-03 00:59:24,1042961
2025-09-03 00:59:24,1043012
2025-09-03 00:59:24,1043140
2025-09-03 00:59:24,1043163
2025-09-03 00:59:24,1043073
2025-09-03 00:59:24,1042994
2025-09-03 00:59:24,1042728
2025-09-03 00:59:24,1042382
2025-09-03 00:59:24,1041895
2025-09-03 00:59:24,1041417
2025-09-03 00:59:24,1040933
2025-09-03 00:59:24,1040525
2025-09-03 00:59:24,1040171
2025-09-03 00:59:24,1039763
2025-09-03 00:59:24,1039527
2025-09-03 00:59:24,1039303
2025-09-03 00:59:24,1039117
2025-09-03 00:59:24,1038907
2025-09-03 00:59:24,1038705
2025-09-03 00:59:24,1038670
2025-09-03 00:59:24,1038552
2025-09-03 00:59:24,1038470
2025-09-03 00:59:24,1038429
2025-09-03 00:59:24,1038350
2025-09-03 00:59:24,1038219
2025-09-03 00:59:24,1038238
2025-09-03 00:59:24,1038122
2025-09-03 00:59:24,1038074
2025-09-03 00:59:24,1038014
2025-09-03 00:59:24,1037938
2025-09-03 00:59:25,1037915
2025-09-03 00:59:25,1037986
2025-09-03 00:59:25,1037979
2025-09-03 00:59:25,1038059
2025-09-03 00:59:25,1038218
2025-09-03 00:59:25,1038087
2025-09-03 00:59:25,1038239
2025-09-03 00:59:25,1038215
2025-09-03 00:59:25,1038247
2025-09-03 00:59:25,1038406
2025-09-03 00:59:25,1038290
2025-09-03 00:59:25,1038282
2025-09-03 00:59:25,1038278
2025-09-03 00:59:25,1038217
2025-09-03 00:59:25,1038226
2025-09-03 00:59:25,1038231
2025-09-03 00:59:25,1038246
2025-09-03 00:59:25,1038265
2025-09-03 00:59:25,1038318
2025-09-03 00:59:25,1038317
2025-09-03 00:59:25,1038364
2025-09-03 00:59:25,1038444
2025-09-03 00:59:25,1038678
2025-09-03 00:59:25,1038762
2025-09-03 00:59:25,1038895
2025-09-03 00:59:25,1038972
2025-09-03 00:59:25,1039083
2025-09-03 00:59:25,1039179
2025-09-03 00:59:25,1039308
2025-09-03 00:59:25,1039381
2025-09-03 00:59:25,1039469
2025-09-03 00:59:25,1039533
2025-09-03 00:59:25,1039701
2025-09-03 00:59:25,1039772
2025-09-03 00:59:25,1039889
2025-09-03 00:59:25,1040015
2025-09-03 00:59:25,1040095
2025-09-03 00:59:25,1040249
2025-09-03 00:59:25,1040303
2025-09-03 00:59:25,1040339
2025-09-03 00:59:25,1040519
2025-09-03 00:59:25,1040633
2025-09-03 00:59:25,1040807
2025-09-03 00:59:25,1040885
2025-09-03 00:59:25,1041115
2025-09-03 00:59:25,1041057
2025-09-03 00:59:25,1041275
2025-09-03 00:59:25,1041347
2025-09-03 00:59:25,1041287
2025-09-03 00:59:25,1041208
2025-09-03 00:59:25,1040778
2025-09-03 00:59:25,1040553
2025-09-03 00:59:25,1040059
2025-09-03 00:59:25,1039605
2025-09-03 00:59:25,1039352
2025-09-03 00:59:25,1039001
2025-09-03 00:59:25,1038689
2025-09-03 00:59:25,1038409
2025-09-03 00:59:25,1038251
2025-09-03 00:59:25,1038143
2025-09-03 00:59:25,1038020
2025-09-03 00:59:25,1037876
2025-09-03 00:59:25,1037925
2025-09-03 00:59:25,1037847
2025-09-03 00:59:25,1037852
2025-09-03 00:59:25,1037890
2025-09-03 00:59:25,1037858
2025-09-03 00:59:25,1037844
2025-09-03 00:59:25,1037890
2025-09-03 00:59:25,1037945
2025-09-03 00:59:25,1037890
2025-09-03 00:59:25,1037908
2025-09-03 00:59:25,1037933
2025-09-03 00:59:25,1037906
2025-09-03 00:59:25,1037916
2025-09-03 00:59:25,1038098
2025-09-03 00:59:25,1037980
2025-09-03 00:59:25,1038002
2025-09-03 00:59:25,1038142
2025-09-03 00:59:25,1038140
2025-09-03 00:59:25,1038273
2025-09-03 00:59:25,1038337
2025-09-03 00:59:25,1038413
2025-09-03 00:59:25,1038354
2025-09-03 00:59:25,1038316
2025-09-03 00:59:25,1038321
2025-09-03 00:59:25,1038266
2025-09-03 00:59:25,1038238
2025-09-03 00:59:25,1038204
2025-09-03 00:59:25,1038165
2025-09-03 00:59:25,1038195
2025-09-03 00:59:25,1038209
2025-09-03 00:59:25,1038333
2025-09-03 00:59:25,1038349
2025-09-03 00:59:25,1038433
2025-09-03 00:59:25,1038432
2025-09-03 00:59:25,1038539
2025-09-03 00:59:25,1038525
2025-09-03 00:59:25,1038600
2025-09-03 00:59:26,1038703
2025-09-03 00:59:26,1038716
2025-09-03 00:59:26,1038793
2025-09-03 00:59:26,1038848
2025-09-03 00:59:26,1038914
2025-09-03 00:59:26,1039094
2025-09-03 00:59:26,1039119
2025-09-03 00:59:26,1039150
2025-09-03 00:59:26,1039174
2025-09-03 00:59:26,1039238
2025-09-03 00:59:26,1039230
2025-09-03 00:59:26,1039356
2025-09-03 00:59:26,1039355
2025-09-03 00:59:26,1039433
2025-09-03 00:59:26,1039556
2025-09-03 00:59:26,1039689
2025-09-03 00:59:26,1039751
2025-09-03 00:59:26,1039847
2025-09-03 00:59:26,1039947
2025-09-03 00:59:26,1040006
2025-09-03 00:59:26,1040031
2025-09-03 00:59:26,1040144
2025-09-03 00:59:26,1040200
2025-09-03 00:59:26,1040080
2025-09-03 00:59:26,1039843
2025-09-03 00:59:26,1039376
2025-09-03 00:59:26,1039042
2025-09-03 00:59:26,1038541
2025-09-03 00:59:26,1038086
2025-09-03 00:59:26,1037711
2025-09-03 00:59:26,1037371
2025-09-03 00:59:26,1037218
2025-09-03 00:59:26,1036983
2025-09-03 00:59:26,1036815
2025-09-03 00:59:26,1036697
2025-09-03 00:59:26,1036715
2025-09-03 00:59:26,1036566
2025-09-03 00:59:26,1036554
2025-09-03 00:59:26,1036558
2025-09-03 00:59:26,1036595
2025-09-03 00:59:26,1036471
2025-09-03 00:59:26,1036590
2025-09-03 00:59:26,1036709
2025-09-03 00:59:26,1036643
2025-09-03 00:59:26,1036646
2025-09-03 00:59:26,1036637
2025-09-03 00:59:26,1036676
2025-09-03 00:59:26,1036703
2025-09-03 00:59:26,1036724
2025-09-03 00:59:26,1036862
2025-09-03 00:59:26,1036851
2025-09-03 00:59:26,1036945
2025-09-03 00:59:26,1037040
2025-09-03 00:59:26,1037125
2025-09-03 00:59:26,1037155
2025-09-03 00:59:26,1037157
2025-09-03 00:59:26,1037223
2025-09-03 00:59:26,1037115
2025-09-03 00:59:26,1037056
2025-09-03 00:59:26,1037070
2025-09-03 00:59:26,1037053
2025-09-03 00:59:26,1037099
2025-09-03 00:59:26,1037045
2025-09-03 00:59:26,1037127
2025-09-03 00:59:26,1037083
2025-09-03 00:59:26,1037061
2025-09-03 00:59:26,1037259
2025-09-03 00:59:26,1037194
2025-09-03 00:59:26,1037265
2025-09-03 00:59:26,1037383
2025-09-03 00:59:26,1037736
2025-09-03 00:59:26,1037916
2025-09-03 00:59:26,1037943
2025-09-03 00:59:26,1038081
2025-09-03 00:59:26,1038369
2025-09-03 00:59:26,1038470
2025-09-03 00:59:26,1038590
2025-09-03 00:59:26,1038672
2025-09-03 00:59:26,1038789
2025-09-03 00:59:26,1038974
2025-09-03 00:59:26,1039072
2025-09-03 00:59:26,1039139
2025-09-03 00:59:26,1039388
2025-09-03 00:59:26,1039418
2025-09-03 00:59:26,1039556
2025-09-03 00:59:26,1039671
2025-09-03 00:59:26,1039779
2025-09-03 00:59:26,1039842
2025-09-03 00:59:26,1039967
2025-09-03 00:59:26,1040006
2025-09-03 00:59:26,1040094
2025-09-03 00:59:26,1040123
2025-09-03 00:59:26,1040148
2025-09-03 00:59:26,1040135
2025-09-03 00:59:26,1040236
2025-09-03 00:59:26,1040286
2025-09-03 00:59:26,1040202
2025-09-03 00:59:26,1040285
2025-09-03 00:59:26,1040351
2025-09-03 00:59:26,1040340
2025-09-03 00:59:26,1040355
2025-09-03 00:59:27,1040294
2025-09-03 00:59:27,1040248
2025-09-03 00:59:27,1040194
2025-09-03 00:59:27,1039988
2025-09-03 00:59:27,1039785
2025-09-03 00:59:27,1039209
2025-09-03 00:59:27,1038614
2025-09-03 00:59:27,1038099
2025-09-03 00:59:27,1037501
2025-09-03 00:59:27,1037070
2025-09-03 00:59:27,1036716
2025-09-03 00:59:27,1036280
2025-09-03 00:59:27,1035996
2025-09-03 00:59:27,1035830
2025-09-03 00:59:27,1035623
2025-09-03 00:59:27,1035602
2025-09-03 00:59:27,1035493
2025-09-03 00:59:27,1035354
2025-09-03 00:59:27,1035364
2025-09-03 00:59:27,1035343
2025-09-03 00:59:16,1035399
2025-09-03 00:59:24,1035417
2025-09-03 00:59:27,1035817
2025-09-03 00:59:27,1036320
2025-09-03 00:59:27,1036710
2025-09-03 00:59:27,1037061
2025-09-03 00:59:27,1037548
2025-09-03 00:59:27,1037874
2025-09-03 00:59:27,1038098
2025-09-03 00:59:27,1038410
2025-09-03 00:59:27,1038697
2025-09-03 00:59:27,1039103
2025-09-03 00:59:27,1039407
2025-09-03 00:59:27,1039714
2025-09-03 00:59:27,1039969
2025-09-03 00:59:27,1040073
2025-09-03 00:59:27,1040381
2025-09-03 00:59:27,1040637
2025-09-03 00:59:27,1040882
2025-09-03 00:59:27,1041094
2025-09-03 00:59:27,1041151
2025-09-03 00:59:27,1041314
2025-09-03 00:59:27,1041268
2025-09-03 00:59:27,1041343
2025-09-03 00:59:27,1041447
2025-09-03 00:59:27,1041594
2025-09-03 00:59:27,1041695
2025-09-03 00:59:27,1041806
2025-09-03 00:59:27,1041994
2025-09-03 00:59:27,1042287
2025-09-03 00:59:27,1042442
2025-09-03 00:59:27,1042500
2025-09-03 00:59:27,1042749
2025-09-03 00:59:27,1042957
2025-09-03 00:59:27,1043053
2025-09-03 00:59:27,1043150
2025-09-03 00:59:27,1043277
2025-09-03 00:59:27,1043417
2025-09-03 00:59:27,1043519
2025-09-03 00:59:27,1043621
2025-09-03 00:59:27,1043808
2025-09-03 00:59:27,1043905
2025-09-03 00:59:27,1044109
2025-09-03 00:59:27,1044196
2025-09-03 00:59:27,1044408
2025-09-03 00:59:27,1044498
2025-09-03 00:59:27,1044609
2025-09-03 00:59:27,1044658
2025-09-03 00:59:27,1044868
2025-09-03 00:59:27,1044836
2025-09-03 00:59:27,1044816
2025-09-03 00:59:27,1044993
2025-09-03 00:59:27,1045073
2025-09-03 00:59:27,1045153
2025-09-03 00:59:27,1045155
2025-09-03 00:59:27,1045255
2025-09-03 00:59:27,1045376
2025-09-03 00:59:27,1045504
2025-09-03 00:59:27,1045568
2025-09-03 00:59:27,1045732
2025-09-03 00:59:27,1045769
2025-09-03 00:59:27,1045865
2025-09-03 00:59:27,1045899
2025-09-03 00:59:27,1046112
2025-09-03 00:59:27,1046102
2025-09-03 00:59:27,1046211
2025-09-03 00:59:27,1046207
2025-09-03 00:59:27,1045904
2025-09-03 00:59:27,1045611
2025-09-03 00:59:27,1045159
2025-09-03 00:59:27,1044623
2025-09-03 00:59:27,1044272
2025-09-03 00:59:27,1043805
2025-09-03 00:59:27,1043570
2025-09-03 00:59:27,1043187
2025-09-03 00:59:27,1043046
2025-09-03 00:59:27,1042890
2025-09-03 00:59:27,1042762
2025-09-03 00:59:27,1042583
2025-09-03 00:59:27,1042444
2025-09-03 00:59:28,1042448
2025-09-03 00:59:28,1042459
2025-09-03 00:59:28,1042382
2025-09-03 00:59:28,1042338
2025-09-03 00:59:28,1042418
2025-09-03 00:59:28,1042448
2025-09-03 00:59:28,1042511
2025-09-03 00:59:28,1042489
2025-09-03 00:59:28,1042515
2025-09-03 00:59:28,1042647
2025-09-03 00:59:28,1042699
2025-09-03 00:59:28,1042743
2025-09-03 00:59:28,1042810
2025-09-03 00:59:28,1042875
2025-09-03 00:59:28,1042882
2025-09-03 00:59:28,1043032
2025-09-03 00:59:28,1043138
2025-09-03 00:59:28,1043262
2025-09-03 00:59:28,1043227
2025-09-03 00:59:28,1043277
2025-09-03 00:59:28,1043358
2025-09-03 00:59:28,1043337
2025-09-03 00:59:28,1043385
2025-09-03 00:59:28,1043372
2025-09-03 00:59:28,1043387
2025-09-03 00:59:28,1043360
2025-09-03 00:59:28,1043420
2025-09-03 00:59:28,1043457
2025-09-03 00:59:28,1043523
2025-09-03 00:59:28,1043585
2025-09-03 00:59:28,1043558
2025-09-03 00:59:28,1043563
2025-09-03 00:59:28,1043671
2025-09-03 00:59:28,1043909
2025-09-03 00:59:28,1044011
2025-09-03 00:59:28,1044042
2025-09-03 00:59:28,1044187
2025-09-03 00:59:28,1044366
2025-09-03 00:59:28,1044334
2025-09-03 00:59:28,1044493
2025-09-03 00:59:28,1044598
2025-09-03 00:59:28,1044768
2025-09-03 00:59:28,1044826
2025-09-03 00:59:28,1044972
2025-09-03 00:59:28,1045098
2025-09-03 00:59:28,1045156
2025-09-03 00:59:28,1045210
2025-09-03 00:59:28,1045321
2025-09-03 00:59:28,1045425
2025-09-03 00:59:28,1045547
2025-09-03 00:59:28,1045679
2025-09-03 00:59:28,1045727
2025-09-03 00:59:28,1045809
2025-09-03 00:59:28,1045847
2025-09-03 00:59:28,1045958
2025-09-03 00:59:28,1046109
2025-09-03 00:59:28,1046204
2025-09-03 00:59:28,1046152
2025-09-03 00:59:28,1046237
2025-09-03 00:59:28,1046318
2025-09-03 00:59:28,1046416
2025-09-03 00:59:28,1046475
2025-09-03 00:59:28,1046581
2025-09-03 00:59:28,1046685
2025-09-03 00:59:28,1046759
2025-09-03 00:59:28,1046981
2025-09-03 00:59:28,1047092
2025-09-03 00:59:28,1047094
2025-09-03 00:59:28,1047284
2025-09-03 00:59:28,1047326
2025-09-03 00:59:28,1047514
2025-09-03 00:59:28,1047528
2025-09-03 00:59:28,1047665
2025-09-03 00:59:28,1047762
2025-09-03 00:59:28,1047799
2025-09-03 00:59:28,1047739
2025-09-03 00:59:28,1047490
2025-09-03 00:59:28,1047154
2025-09-03 00:59:28,1046653
2025-09-03 00:59:28,1046121
2025-09-03 00:59:28,1045675
2025-09-03 00:59:28,1045322
2025-09-03 00:59:28,1044874
2025-09-03 00:59:28,1044606
2025-09-03 00:59:28,1044379
2025-09-03 00:59:28,1044399
2025-09-03 00:59:28,1044290
2025-09-03 00:59:28,1044253
2025-09-03 00:59:28,1044217
2025-09-03 00:59:28,1044228
2025-09-03 00:59:28,1044243
2025-09-03 00:59:28,1044284
2025-09-03 00:59:28,1044262
2025-09-03 00:59:28,1044358
2025-09-03 00:59:28,1044396
2025-09-03 00:59:28,1044479
2025-09-03 00:59:28,1044405
2025-09-03 00:59:28,1044455
2025-09-03 00:59:28,1044471
2025-09-03 00:59:28,1044539
2025-09-03 00:59:29,1044530
2025-09-03 00:59:29,1044622
2025-09-03 00:59:29,1044771
2025-09-03 00:59:29,1044872
2025-09-03 00:59:29,1045066
2025-09-03 00:59:29,1045023
2025-09-03 00:59:29,1045171
2025-09-03 00:59:29,1045118
2025-09-03 00:59:29,1045227
2025-09-03 00:59:29,1045373
2025-09-03 00:59:29,1045320
2025-09-03 00:59:29,1045330
2025-09-03 00:59:29,1045335
2025-09-03 00:59:29,1045345
2025-09-03 00:59:29,1045448
2025-09-03 00:59:29,1045399
2025-09-03 00:59:29,1045442
2025-09-03 00:59:29,1045447
2025-09-03 00:59:29,1045441
2025-09-03 00:59:29,1045519
2025-09-03 00:59:29,1045600
2025-09-03 00:59:29,1045629
2025-09-03 00:59:29,1045779
2025-09-03 00:59:29,1045798
2025-09-03 00:59:29,1045991
2025-09-03 00:59:29,1045915
2025-09-03 00:59:29,1046094
2025-09-03 00:59:29,1046204
2025-09-03 00:59:29,1046245
2025-09-03 00:59:29,1046395
2025-09-03 00:59:29,1046459
2025-09-03 00:59:29,1046606
2025-09-03 00:59:29,1046699
2025-09-03 00:59:29,1046783
2025-09-03 00:59:29,1046767
2025-09-03 00:59:29,1046954
2025-09-03 00:59:29,1047088
2025-09-03 00:59:29,1047141
2025-09-03 00:59:29,1047264
2025-09-03 00:59:29,1047334
2025-09-03 00:59:29,1047463
2025-09-03 00:59:29,1047539
2025-09-03 00:59:29,1047586
2025-09-03 00:59:29,1047622
2025-09-03 00:59:29,1047700
2025-09-03 00:59:29,1047730
2025-09-03 00:59:29,1047889
2025-09-03 00:59:29,1047954
2025-09-03 00:59:29,1048019
2025-09-03 00:59:29,1048090
2025-09-03 00:59:29,1048180
2025-09-03 00:59:29,1048219
2025-09-03 00:59:29,1048268
2025-09-03 00:59:29,1048435
2025-09-03 00:59:29,1048508
2025-09-03 00:59:29,1048625
2025-09-03 00:59:29,1048696
2025-09-03 00:59:29,1048741
2025-09-03 00:59:29,1048660
2025-09-03 00:59:29,1048661
2025-09-03 00:59:29,1048600
2025-09-03 00:59:29,1048283
2025-09-03 00:59:29,1047914
2025-09-03 00:59:29,1047438
2025-09-03 00:59:29,1046969
2025-09-03 00:59:29,1046578
2025-09-03 00:59:29,1046269
2025-09-03 00:59:29,1046014
2025-09-03 00:59:29,1045707
2025-09-03 00:59:29,1045613
2025-09-03 00:59:29,1045590
2025-09-03 00:59:29,1045374
2025-09-03 00:59:29,1045371
2025-09-03 00:59:29,1045333
2025-09-03 00:59:29,1045351
2025-09-03 00:59:29,1045400
2025-09-03 00:59:29,1045519
2025-09-03 00:59:29,1045612
2025-09-03 00:59:29,1045602
2025-09-03 00:59:29,1045709
2025-09-03 00:59:29,1045837
2025-09-03 00:59:29,1045831
2025-09-03 00:59:29,1045853
2025-09-03 00:59:29,1045919
2025-09-03 00:59:29,1045991
2025-09-03 00:59:29,1046089
2025-09-03 00:59:29,1046164
2025-09-03 00:59:29,1046302
2025-09-03 00:59:29,1046495
2025-09-03 00:59:29,1046544
2025-09-03 00:59:29,1046576
2025-09-03 00:59:29,1046700
2025-09-03 00:59:29,1046802
2025-09-03 00:59:29,1046949
2025-09-03 00:59:29,1046852
2025-09-03 00:59:29,1046952
2025-09-03 00:59:29,1046967
2025-09-03 00:59:29,1046932
2025-09-03 00:59:29,1046924
2025-09-03 00:59:30,1046884
2025-09-03 00:59:30,1046953
2025-09-03 00:59:30,1047026
2025-09-03 00:59:30,1047005
2025-09-03 00:59:30,1047144
2025-09-03 00:59:30,1047216
2025-09-03 00:59:30,1047305
2025-09-03 00:59:30,1047436
2025-09-03 00:59:30,1047489
2025-09-03 00:59:30,1047542
2025-09-03 00:59:30,1047700
2025-09-03 00:59:30,1047853
2025-09-03 00:59:30,1047983
2025-09-03 00:59:30,1048145
2025-09-03 00:59:30,1048193
2025-09-03 00:59:30,1048284
2025-09-03 00:59:30,1048382
2025-09-03 00:59:30,1048447
2025-09-03 00:59:30,1048608
2025-09-03 00:59:30,1048667
2025-09-03 00:59:30,1048749
2025-09-03 00:59:30,1048811
2025-09-03 00:59:30,1048931
2025-09-03 00:59:30,1048967
2025-09-03 00:59:30,1049147
2025-09-03 00:59:30,1049188
2025-09-03 00:59:30,1049210
2025-09-03 00:59:30,1049323
2025-09-03 00:59:30,1049325
2025-09-03 00:59:30,1049429
2025-09-03 00:59:30,1049507
2025-09-03 00:59:30,1049602
2025-09-03 00:59:30,1049704
2025-09-03 00:59:30,1049701
2025-09-03 00:59:30,1049762
2025-09-03 00:59:30,1049831
2025-09-03 00:59:30,1049911
2025-09-03 00:59:30,1049844
2025-09-03 00:59:30,1049732
2025-09-03 00:59:30,1049406
2025-09-03 00:59:30,1048911
2025-09-03 00:59:30,1048444
2025-09-03 00:59:30,1047830
2025-09-03 00:59:30,1047400
2025-09-03 00:59:30,1047008
2025-09-03 00:59:30,1046722
2025-09-03 00:59:30,1046429
2025-09-03 00:59:30,1046141
2025-09-03 00:59:30,1046115
2025-09-03 00:59:30,1045988
2025-09-03 00:59:30,1045923
2025-09-03 00:59:30,1046038
2025-09-03 00:59:30,1046130
2025-09-03 00:59:30,1046161
2025-09-03 00:59:30,1046154
2025-09-03 00:59:30,1046155
2025-09-03 00:59:30,1046146
2025-09-03 00:59:30,1046097
2025-09-03 00:59:30,1046263
2025-09-03 00:59:30,1046234
2025-09-03 00:59:30,1046298
2025-09-03 00:59:30,1046334
2025-09-03 00:59:30,1046494
2025-09-03 00:59:30,1046560
2025-09-03 00:59:30,1046559
2025-09-03 00:59:30,1046580
2025-09-03 00:59:30,1046707
2025-09-03 00:59:30,1046712
2025-09-03 00:59:30,1046660
2025-09-03 00:59:30,1046744
2025-09-03 00:59:30,1046796
2025-09-03 00:59:30,1046834
2025-09-03 00:59:30,1046759
2025-09-03 00:59:30,1046841
2025-09-03 00:59:30,1046893
2025-09-03 00:59:30,1046769
2025-09-03 00:59:30,1046772
2025-09-03 00:59:30,1046789
2025-09-03 00:59:30,1046759
2025-09-03 00:59:30,1046848
2025-09-03 00:59:30,1046852
2025-09-03 00:59:30,1046895
2025-09-03 00:59:30,1046999
2025-09-03 00:59:30,1046925
2025-09-03 00:59:30,1046991
2025-09-03 00:59:30,1047048
2025-09-03 00:59:30,1047218
2025-09-03 00:59:30,1047200
2025-09-03 00:59:30,1047337
2025-09-03 00:59:30,1047444
2025-09-03 00:59:30,1047611
2025-09-03 00:59:30,1047674
2025-09-03 00:59:30,1047818
2025-09-03 00:59:30,1047927
2025-09-03 00:59:30,1047972
2025-09-03 00:59:30,1048122
2025-09-03 00:59:30,1048061
2025-09-03 00:59:30,1048200
2025-09-03 00:59:30,1048149
2025-09-03 00:59:30,1048146
2025-09-03 00:59:31,1048243
2025-09-03 00:59:31,1048226
2025-09-03 00:59:31,1048294
2025-09-03 00:59:31,1048397
2025-09-03 00:59:31,1048510
2025-09-03 00:59:31,1048464
2025-09-03 00:59:31,1048469
2025-09-03 00:59:31,1048578
2025-09-03 00:59:31,1048629
2025-09-03 00:59:31,1048748
2025-09-03 00:59:31,1048806
2025-09-03 00:59:31,1048806
2025-09-03 00:59:31,1049013
2025-09-03 00:59:31,1049076
2025-09-03 00:59:31,1049054
2025-09-03 00:59:31,1049165
2025-09-03 00:59:31,1049171
2025-09-03 00:59:31,1049149
2025-09-03 00:59:31,1049161
2025-09-03 00:59:31,1048916
2025-09-03 00:59:31,1048629
2025-09-03 00:59:31,1047961
2025-09-03 00:59:31,1047542
2025-09-03 00:59:31,1046970
2025-09-03 00:59:31,1046419
2025-09-03 00:59:31,1046053
2025-09-03 00:59:31,1045778
2025-09-03 00:59:31,1045486
2025-09-03 00:59:31,1045207
2025-09-03 00:59:31,1045183
2025-09-03 00:59:31,1045150
2025-09-03 00:59:31,1045160
2025-09-03 00:59:31,1045160
2025-09-03 00:59:31,1045206
2025-09-03 00:59:31,1045245
2025-09-03 00:59:31,1045353
2025-09-03 00:59:31,1045325
2025-09-03 00:59:31,1045356
2025-09-03 00:59:31,1045401
2025-09-03 00:59:31,1045400
2025-09-03 00:59:31,1045455
2025-09-03 00:59:31,1045376
2025-09-03 00:59:31,1045379
2025-09-03 00:59:31,1045417
2025-09-03 00:59:31,1045488
2025-09-03 00:59:31,1045471
2025-09-03 00:59:31,1045626
2025-09-03 00:59:31,1045649
2025-09-03 00:59:31,1045672
2025-09-03 00:59:31,1045690
2025-09-03 00:59:31,1045715
2025-09-03 00:59:31,1045930
2025-09-03 00:59:31,1045953
2025-09-03 00:59:31,1045901
2025-09-03 00:59:31,1045860
2025-09-03 00:59:31,1045716
2025-09-03 00:59:31,1045672
2025-09-03 00:59:31,1045537
2025-09-03 00:59:31,1045555
2025-09-03 00:59:31,1045501
2025-09-03 00:59:31,1045580
2025-09-03 00:59:31,1045597
2025-09-03 00:59:31,1045646
2025-09-03 00:59:31,1045737
2025-09-03 00:59:31,1045829
2025-09-03 00:59:31,1045945
2025-09-03 00:59:31,1046031
2025-09-03 00:59:31,1046040
2025-09-03 00:59:31,1046207
2025-09-03 00:59:31,1046236
2025-09-03 00:59:31,1046376
2025-09-03 00:59:31,1046445
2025-09-03 00:59:31,1046518
2025-09-03 00:59:31,1046590
2025-09-03 00:59:31,1046661
2025-09-03 00:59:31,1046761
2025-09-03 00:59:31,1046840
2025-09-03 00:59:31,1046921
2025-09-03 00:59:31,1046976
2025-09-03 00:59:31,1047061
2025-09-03 00:59:31,1047170
2025-09-03 00:59:31,1047316
2025-09-03 00:59:31,1047421
2025-09-03 00:59:31,1047556
2025-09-03 00:59:31,1047637
2025-09-03 00:59:31,1047678
2025-09-03 00:59:31,1047740
2025-09-03 00:59:31,1047784
2025-09-03 00:59:31,1047774
2025-09-03 00:59:31,1047931
2025-09-03 00:59:31,1047880
2025-09-03 00:59:31,1048044
2025-09-03 00:59:31,1048141
2025-09-03 00:59:31,1048278
2025-09-03 00:59:31,1048419
2025-09-03 00:59:31,1048629
2025-09-03 00:59:31,1048846
2025-09-03 00:59:31,1048923
2025-09-03 00:59:31,1049136
2025-09-03 00:59:31,1049154
2025-09-03 00:59:32,1049097
2025-09-03 00:59:32,1048948
2025-09-03 00:59:32,1048657
2025-09-03 00:59:32,1048113
2025-09-03 00:59:32,1047706
2025-09-03 00:59:32,1047230
2025-09-03 00:59:32,1046758
2025-09-03 00:59:32,1046361
2025-09-03 00:59:32,1046201
2025-09-03 00:59:32,1046058
2025-09-03 00:59:32,1045900
2025-09-03 00:59:32,1045792
2025-09-03 00:59:32,1045671
2025-09-03 00:59:32,1045674
2025-09-03 00:59:32,1045621
2025-09-03 00:59:32,1045552
2025-09-03 00:59:32,1045588
2025-09-03 00:59:32,1045533
2025-09-03 00:59:32,1045541
2025-09-03 00:59:32,1045496
2025-09-03 00:59:32,1045418
2025-09-03 00:59:32,1045374
2025-09-03 00:59:32,1045194
2025-09-03 00:59:32,1045251
2025-09-03 00:59:32,1045053
2025-09-03 00:59:32,1045139
2025-09-03 00:59:32,1044925
2025-09-03 00:59:32,1045113
2025-09-03 00:59:32,1045140
2025-09-03 00:59:32,1045289
2025-09-03 00:59:32,1045524
2025-09-03 00:59:32,1045666
2025-09-03 00:59:32,1045643
2025-09-03 00:59:32,1045629
2025-09-03 00:59:32,1045596
2025-09-03 00:59:32,1045682
2025-09-03 00:59:32,1045692
2025-09-03 00:59:32,1045759
2025-09-03 00:59:32,1045796
2025-09-03 00:59:32,1045856
2025-09-03 00:59:32,1045985
2025-09-03 00:59:32,1046109
2025-09-03 00:59:32,1046190
2025-09-03 00:59:32,1046286
2025-09-03 00:59:32,1046345
2025-09-03 00:59:32,1046512
2025-09-03 00:59:32,1046593
2025-09-03 00:59:32,1046792
2025-09-03 00:59:32,1046770
2025-09-03 00:59:32,1046901
2025-09-03 00:59:32,1047005
2025-09-03 00:59:32,1046982
2025-09-03 00:59:32,1047150
2025-09-03 00:59:32,1047111
2025-09-03 00:59:32,1047192
2025-09-03 00:59:32,1047388
2025-09-03 00:59:32,1047391
2025-09-03 00:59:32,1047497
2025-09-03 00:59:32,1047622
2025-09-03 00:59:32,1047770
2025-09-03 00:59:32,1047796
2025-09-03 00:59:32,1047945
2025-09-03 00:59:32,1047957
2025-09-03 00:59:32,1048102
2025-09-03 00:59:32,1048222
2025-09-03 00:59:32,1048281
2025-09-03 00:59:32,1048457
2025-09-03 00:59:32,1048504
2025-09-03 00:59:32,1048586
2025-09-03 00:59:32,1048609
2025-09-03 00:59:32,1048788
2025-09-03 00:59:32,1048892
2025-09-03 00:59:32,1048853
2025-09-03 00:59:32,1048936
2025-09-03 00:59:32,1049033
2025-09-03 00:59:32,1049125
2025-09-03 00:59:32,1049164
2025-09-03 00:59:32,1049243
2025-09-03 00:59:32,1049282
2025-09-03 00:59:32,1049501
2025-09-03 00:59:32,1049624
2025-09-03 00:59:32,1049617
2025-09-03 00:59:32,1049524
2025-09-03 00:59:32,1049279
2025-09-03 00:59:32,1048936
2025-09-03 00:59:32,1048592
2025-09-03 00:59:32,1048280
2025-09-03 00:59:32,1047946
2025-09-03 00:59:32,1047837
2025-09-03 00:59:32,1047519
2025-09-03 00:59:32,1047378
2025-09-03 00:59:32,1047324
2025-09-03 00:59:32,1047239
2025-09-03 00:59:32,1047261
2025-09-03 00:59:32,1047429
2025-09-03 00:59:32,1047340
2025-09-03 00:59:32,1047414
2025-09-03 00:59:32,1047650
2025-09-03 00:59:32,1047641
2025-09-03 00:59:32,1047756
2025-09-03 00:59:33,1047822
2025-09-03 00:59:33,1047823
2025-09-03 00:59:33,1047858
2025-09-03 00:59:33,1048009
2025-09-03 00:59:33,1048060
2025-09-03 00:59:33,1047997
2025-09-03 00:59:33,1048026
2025-09-03 00:59:33,1047991
2025-09-03 00:59:33,1047986
2025-09-03 00:59:33,1047982
2025-09-03 00:59:33,1048108
2025-09-03 00:59:33,1048169
2025-09-03 00:59:33,1048140
2025-09-03 00:59:33,1048241
2025-09-03 00:59:33,1048352
2025-09-03 00:59:33,1048399
2025-09-03 00:59:33,1048436
2025-09-03 00:59:33,1048430
2025-09-03 00:59:33,1048437
2025-09-03 00:59:33,1048422
2025-09-03 00:59:33,1048507
2025-09-03 00:59:33,1048463
2025-09-03 00:59:33,1048432
2025-09-03 00:59:33,1048555
2025-09-03 00:59:33,1048663
2025-09-03 00:59:33,1048575
2025-09-03 00:59:33,1048717
2025-09-03 00:59:33,1048931
2025-09-03 00:59:33,1048988
2025-09-03 00:59:33,1048994
2025-09-03 00:59:33,1049155
2025-09-03 00:59:33,1049326
2025-09-03 00:59:33,1049508
2025-09-03 00:59:33,1049552
2025-09-03 00:59:33,1049646
2025-09-03 00:59:33,1049745
2025-09-03 00:59:33,1049781
2025-09-03 00:59:33,1049928
2025-09-03 00:59:33,1050083
2025-09-03 00:59:33,1050203
2025-09-03 00:59:33,1050332
2025-09-03 00:59:33,1050476
2025-09-03 00:59:33,1050623
2025-09-03 00:59:33,1050762
2025-09-03 00:59:33,1050883
2025-09-03 00:59:33,1050995
2025-09-03 00:59:33,1051142
2025-09-03 00:59:33,1051251
2025-09-03 00:59:33,1051267
2025-09-03 00:59:33,1051380
2025-09-03 00:59:33,1051438
2025-09-03 00:59:33,1051520
2025-09-03 00:59:33,1051733
2025-09-03 00:59:33,1051809
2025-09-03 00:59:33,1051946
2025-09-03 00:59:33,1051951
2025-09-03 00:59:33,1052058
2025-09-03 00:59:33,1052195
2025-09-03 00:59:33,1052185
2025-09-03 00:59:33,1052211
2025-09-03 00:59:33,1052020
2025-09-03 00:59:33,1051825
2025-09-03 00:59:33,1051446
2025-09-03 00:59:33,1050979
2025-09-03 00:59:33,1050470
2025-09-03 00:59:33,1050025
2025-09-03 00:59:33,1049633
2025-09-03 00:59:33,1049304
2025-09-03 00:59:33,1048991
2025-09-03 00:59:33,1048779
2025-09-03 00:59:33,1048627
2025-09-03 00:59:33,1048556
2025-09-03 00:59:33,1048508
2025-09-03 00:59:33,1048527
2025-09-03 00:59:33,1048601
2025-09-03 00:59:33,1048530
2025-09-03 00:59:33,1048566
2025-09-03 00:59:33,1048574
2025-09-03 00:59:33,1048598
2025-09-03 00:59:33,1048644
2025-09-03 00:59:33,1048630
2025-09-03 00:59:33,1048625
2025-09-03 00:59:33,1048590
2025-09-03 00:59:33,1048613
2025-09-03 00:59:33,1048653
2025-09-03 00:59:33,1048655
2025-09-03 00:59:33,1048740
2025-09-03 00:59:33,1048757
2025-09-03 00:59:33,1048959
2025-09-03 00:59:33,1049019
2025-09-03 00:59:33,1049113
2025-09-03 00:59:33,1049171
2025-09-03 00:59:33,1049238
2025-09-03 00:59:33,1049216
2025-09-03 00:59:33,1049227
2025-09-03 00:59:33,1049334
2025-09-03 00:59:33,1049314
2025-09-03 00:59:33,1049308
2025-09-03 00:59:33,1049324
2025-09-03 00:59:33,1049257
2025-09-03 00:59:34,1049324
2025-09-03 00:59:34,1049280
2025-09-03 00:59:34,1049344
2025-09-03 00:59:34,1049373
2025-09-03 00:59:34,1049380
2025-09-03 00:59:34,1049448
2025-09-03 00:59:34,1049503
2025-09-03 00:59:34,1049570
2025-09-03 00:59:34,1049729
2025-09-03 00:59:34,1049740
2025-09-03 00:59:34,1049841
2025-09-03 00:59:34,1049871
2025-09-03 00:59:34,1049923
2025-09-03 00:59:34,1050075
2025-09-03 00:59:34,1050159
2025-09-03 00:59:34,1050219
2025-09-03 00:59:34,1050301
2025-09-03 00:59:34,1050437
2025-09-03 00:59:34,1050442
2025-09-03 00:59:34,1050540
2025-09-03 00:59:34,1050665
2025-09-03 00:59:34,1050699
2025-09-03 00:59:34,1050817
2025-09-03 00:59:34,1050948
2025-09-03 00:59:34,1050977
2025-09-03 00:59:34,1051091
2025-09-03 00:59:34,1051146
2025-09-03 00:59:34,1051274
2025-09-03 00:59:34,1051302
2025-09-03 00:59:34,1051399
2025-09-03 00:59:34,1051453
2025-09-03 00:59:34,1051605
2025-09-03 00:59:34,1051658
2025-09-03 00:59:34,1051765
2025-09-03 00:59:34,1051843
2025-09-03 00:59:34,1051967
2025-09-03 00:59:34,1052076
2025-09-03 00:59:34,1052004
2025-09-03 00:59:34,1052150
2025-09-03 00:59:34,1052152
2025-09-03 00:59:34,1052195
2025-09-03 00:59:34,1052163
2025-09-03 00:59:34,1052100
2025-09-03 00:59:34,1051823
2025-09-03 00:59:34,1051407
2025-09-03 00:59:34,1050994
2025-09-03 00:59:34,1050459
2025-09-03 00:59:34,1049963
2025-09-03 00:59:34,1049659
2025-09-03 00:59:34,1049326
2025-09-03 00:59:34,1049018
2025-09-03 00:59:34,1048849
2025-09-03 00:59:34,1048685
2025-09-03 00:59:34,1048603
2025-09-03 00:59:34,1048545
2025-09-03 00:59:34,1048570
2025-09-03 00:59:34,1048622
2025-09-03 00:59:34,1048529
2025-09-03 00:59:34,1048631
2025-09-03 00:59:34,1048621
2025-09-03 00:59:34,1048701
2025-09-03 00:59:34,1048719
2025-09-03 00:59:34,1048751
2025-09-03 00:59:34,1048680
2025-09-03 00:59:34,1048693
2025-09-03 00:59:34,1048597
2025-09-03 00:59:34,1048619
2025-09-03 00:59:34,1048656
2025-09-03 00:59:34,1048732
2025-09-03 00:59:34,1048774
2025-09-03 00:59:34,1048883
2025-09-03 00:59:34,1048921
2025-09-03 00:59:34,1049048
2025-09-03 00:59:34,1049073
2025-09-03 00:59:34,1049215
2025-09-03 00:59:34,1049188
2025-09-03 00:59:34,1049140
2025-09-03 00:59:34,1049152
2025-09-03 00:59:34,1049125
2025-09-03 00:59:34,1049026
2025-09-03 00:59:34,1049000
2025-09-03 00:59:34,1048922
2025-09-03 00:59:34,1048868
2025-09-03 00:59:34,1048835
2025-09-03 00:59:34,1048808
2025-09-03 00:59:34,1048761
2025-09-03 00:59:34,1048846
2025-09-03 00:59:34,1048939
2025-09-03 00:59:34,1048996
2025-09-03 00:59:34,1049090
2025-09-03 00:59:34,1049127
2025-09-03 00:59:34,1049214
2025-09-03 00:59:34,1049285
2025-09-03 00:59:34,1049322
2025-09-03 00:59:34,1049420
2025-09-03 00:59:34,1049580
2025-09-03 00:59:34,1049633
2025-09-03 00:59:34,1049798
2025-09-03 00:59:34,1049856
2025-09-03 00:59:34,1049948
2025-09-03 00:59:35,1050125
2025-09-03 00:59:35,1050222
2025-09-03 00:59:35,1050313
2025-09-03 00:59:35,1050488
2025-09-03 00:59:35,1050681
2025-09-03 00:59:35,1050768
2025-09-03 00:59:35,1050943
2025-09-03 00:59:35,1050919
2025-09-03 00:59:35,1051014
2025-09-03 00:59:35,1051151
2025-09-03 00:59:35,1051130
2025-09-03 00:59:35,1051272
2025-09-03 00:59:35,1051395
2025-09-03 00:59:35,1051566
2025-09-03 00:59:35,1051656
2025-09-03 00:59:35,1051728
2025-09-03 00:59:35,1051849
2025-09-03 00:59:35,1051938
2025-09-03 00:59:35,1052076
2025-09-03 00:59:35,1052170
2025-09-03 00:59:35,1052257
2025-09-03 00:59:35,1052320
2025-09-03 00:59:35,1052448
2025-09-03 00:59:35,1052524
2025-09-03 00:59:35,1052636
2025-09-03 00:59:35,1052692
2025-09-03 00:59:35,1052652
2025-09-03 00:59:35,1052590
2025-09-03 00:59:35,1052465
2025-09-03 00:59:35,1052057
2025-09-03 00:59:35,1051583
2025-09-03 00:59:35,1051054
2025-09-03 00:59:35,1050702
2025-09-03 00:59:35,1050227
2025-09-03 00:59:35,1049936
2025-09-03 00:59:35,1049676
2025-09-03 00:59:35,1049478
2025-09-03 00:59:35,1049345
2025-09-03 00:59:35,1049324
2025-09-03 00:59:35,1049322
2025-09-03 00:59:35,1049325
2025-09-03 00:59:35,1049242
2025-09-03 00:59:35,1049259
2025-09-03 00:59:35,1049276
2025-09-03 00:59:35,1049307
2025-09-03 00:59:35,1049271
2025-09-03 00:59:35,1049356
2025-09-03 00:59:35,1049348
2025-09-03 00:59:35,1049311
2025-09-03 00:59:35,1049331
2025-09-03 00:59:35,1049450
2025-09-03 00:59:35,1049479
2025-09-03 00:59:35,1049486
2025-09-03 00:59:35,1049575
2025-09-03 00:59:35,1049642
2025-09-03 00:59:35,1049710
2025-09-03 00:59:35,1049831
2025-09-03 00:59:35,1049927
2025-09-03 00:59:35,1049920
2025-09-03 00:59:35,1050010
2025-09-03 00:59:35,1050064
2025-09-03 00:59:35,1050093
2025-09-03 00:59:35,1050149
2025-09-03 00:59:35,1050229
2025-09-03 00:59:35,1050206
2025-09-03 00:59:35,1050190
2025-09-03 00:59:35,1050166
2025-09-03 00:59:35,1050197
2025-09-03 00:59:35,1050187
2025-09-03 00:59:35,1050250
2025-09-03 00:59:35,1050353
2025-09-03 00:59:35,1050387
2025-09-03 00:59:35,1050501
2025-09-03 00:59:35,1050530
2025-09-03 00:59:35,1050664
2025-09-03 00:59:35,1050752
2025-09-03 00:59:35,1050816
2025-09-03 00:59:35,1050908
2025-09-03 00:59:35,1050931
2025-09-03 00:59:35,1051098
2025-09-03 00:59:35,1051126
2025-09-03 00:59:35,1051233
2025-09-03 00:59:35,1051288
2025-09-03 00:59:35,1051452
2025-09-03 00:59:35,1051535
2025-09-03 00:59:35,1051618
2025-09-03 00:59:35,1051643
2025-09-03 00:59:35,1051713
2025-09-03 00:59:35,1051808
2025-09-03 00:59:35,1051875
2025-09-03 00:59:35,1051950
2025-09-03 00:59:35,1051981
2025-09-03 00:59:35,1051986
2025-09-03 00:59:35,1051995
2025-09-03 00:59:35,1052046
2025-09-03 00:59:35,1052055
2025-09-03 00:59:35,1052095
2025-09-03 00:59:35,1052095
2025-09-03 00:59:35,1052215
2025-09-03 00:59:35,1052251
2025-09-03 00:59:36,1052373
2025-09-03 00:59:36,1052366
2025-09-03 00:59:36,1052366
2025-09-03 00:59:36,1052434
2025-09-03 00:59:36,1052461
2025-09-03 00:59:36,1052382
2025-09-03 00:59:36,1052385
2025-09-03 00:59:36,1052374
2025-09-03 00:59:36,1052050
2025-09-03 00:59:36,1051788
2025-09-03 00:59:36,1051306
2025-09-03 00:59:36,1050689
2025-09-03 00:59:36,1050220
2025-09-03 00:59:36,1049774
2025-09-03 00:59:36,1049329
2025-09-03 00:59:36,1049057
2025-09-03 00:59:36,1048723
2025-09-03 00:59:36,1048575
2025-09-03 00:59:36,1048413
2025-09-03 00:59:36,1048307
2025-09-03 00:59:36,1048220
2025-09-03 00:59:36,1048162
2025-09-03 00:59:36,1048155
2025-09-03 00:59:36,1048337
2025-09-03 00:59:36,1048342
2025-09-03 00:59:36,1048380
2025-09-03 00:59:36,1048476
2025-09-03 00:59:36,1048617
2025-09-03 00:59:36,1048653
2025-09-03 00:59:36,1048751
2025-09-03 00:59:36,1048868
2025-09-03 00:59:36,1048819
2025-09-03 00:59:36,1048968
2025-09-03 00:59:36,1049034
2025-09-03 00:59:36,1049139
2025-09-03 00:59:36,1049193
2025-09-03 00:59:36,1049276
2025-09-03 00:59:36,1049360
2025-09-03 00:59:36,1049480
2025-09-03 00:59:36,1049616
2025-09-03 00:59:36,1049691
2025-09-03 00:59:36,1049739
2025-09-03 00:59:36,1049937
2025-09-03 00:59:36,1049989
2025-09-03 00:59:36,1050062
2025-09-03 00:59:36,1050153
2025-09-03 00:59:36,1050088
2025-09-03 00:59:36,1050121
2025-09-03 00:59:36,1050213
2025-09-03 00:59:36,1050185
2025-09-03 00:59:36,1050195
2025-09-03 00:59:36,1050288
2025-09-03 00:59:36,1050232
2025-09-03 00:59:36,1050416
2025-09-03 00:59:36,1050494
2025-09-03 00:59:36,1050570
2025-09-03 00:59:36,1050598
2025-09-03 00:59:36,1050674
2025-09-03 00:59:36,1050747
2025-09-03 00:59:36,1050872
2025-09-03 00:59:36,1050957
2025-09-03 00:59:36,1050994
2025-09-03 00:59:36,1051087
2025-09-03 00:59:36,1051204
2025-09-03 00:59:36,1051228
2025-09-03 00:59:36,1051409
2025-09-03 00:59:36,1051482
2025-09-03 00:59:36,1051511
2025-09-03 00:59:36,1051602
2025-09-03 00:59:36,1051724
2025-09-03 00:59:36,1051737
2025-09-03 00:59:36,1051842
2025-09-03 00:59:36,1051954
2025-09-03 00:59:36,1052058
2025-09-03 00:59:36,1052132
2025-09-03 00:59:36,1052181
2025-09-03 00:59:36,1052323
2025-09-03 00:59:36,1052362
2025-09-03 00:59:36,1052412
2025-09-03 00:59:36,1052553
2025-09-03 00:59:36,1052642
2025-09-03 00:59:36,1052741
2025-09-03 00:59:36,1052797
2025-09-03 00:59:36,1052927
2025-09-03 00:59:36,1053007
2025-09-03 00:59:36,1053152
2025-09-03 00:59:36,1053177
2025-09-03 00:59:36,1053207
2025-09-03 00:59:36,1053315
2025-09-03 00:59:36,1053425
2025-09-03 00:59:36,1053489
2025-09-03 00:59:36,1053527
2025-09-03 00:59:36,1053637
2025-09-03 00:59:36,1053703
2025-09-03 00:59:36,1053823
2025-09-03 00:59:36,1053912
2025-09-03 00:59:36,1053992
2025-09-03 00:59:36,1053998
2025-09-03 00:59:36,1054062
2025-09-03 00:59:36,1054112
2025-09-03 00:59:37,1053914
2025-09-03 00:59:37,1053647
2025-09-03 00:59:37,1053276
2025-09-03 00:59:37,1052857
2025-09-03 00:59:37,1052372
2025-09-03 00:59:37,1051847
2025-09-03 00:59:37,1051246
2025-09-03 00:59:37,1050991
2025-09-03 00:59:37,1050766
2025-09-03 00:59:37,1050519
2025-09-03 00:59:37,1050337
2025-09-03 00:59:37,1050246
2025-09-03 00:59:37,1050141
2025-09-03 00:59:37,1050178
2025-09-03 00:59:37,1050120
2025-09-03 00:59:37,1050224
2025-09-03 00:59:37,1050241
2025-09-03 00:59:37,1050305
2025-09-03 00:59:37,1050262
2025-09-03 00:59:37,1050199
2025-09-03 00:59:37,1050299
2025-09-03 00:59:37,1050305
2025-09-03 00:59:37,1050322
2025-09-03 00:59:37,1050420
2025-09-03 00:59:37,1050403
2025-09-03 00:59:37,1050447
2025-09-03 00:59:37,1050569
2025-09-03 00:59:37,1050641
2025-09-03 00:59:37,1050747
2025-09-03 00:59:37,1050859
2025-09-03 00:59:37,1050965
2025-09-03 00:59:37,1050994
2025-09-03 00:59:37,1051126
2025-09-03 00:59:37,1051101
2025-09-03 00:59:37,1051147
2025-09-03 00:59:37,1051127
2025-09-03 00:59:37,1051055
2025-09-03 00:59:37,1050933
2025-09-03 00:59:37,1051007
2025-09-03 00:59:37,1051017
2025-09-03 00:59:37,1051065
2025-09-03 00:59:37,1051016
2025-09-03 00:59:37,1051090
2025-09-03 00:59:37,1051138
2025-09-03 00:59:37,1051172
2025-09-03 00:59:37,1051226
2025-09-03 00:59:37,1051304
2025-09-03 00:59:37,1051423
2025-09-03 00:59:37,1051412
2025-09-03 00:59:37,1051522
2025-09-03 00:59:37,1051592
2025-09-03 00:59:37,1051661
2025-09-03 00:59:37,1051822
2025-09-03 00:59:37,1051848
2025-09-03 00:59:37,1051899
2025-09-03 00:59:37,1052023
2025-09-03 00:59:37,1052077
2025-09-03 00:59:37,1052178
2025-09-03 00:59:37,1052240
2025-09-03 00:59:37,1052257
2025-09-03 00:59:37,1052386
2025-09-03 00:59:37,1052371
2025-09-03 00:59:37,1052515
2025-09-03 00:59:37,1052510
2025-09-03 00:59:37,1052575
2025-09-03 00:59:37,1052698
2025-09-03 00:59:37,1052747
2025-09-03 00:59:37,1052893
2025-09-03 00:59:37,1052946
2025-09-03 00:59:37,1052993
2025-09-03 00:59:37,1053076
2025-09-03 00:59:37,1053080
2025-09-03 00:59:37,1053188
2025-09-03 00:59:37,1053303
2025-09-03 00:59:37,1053355
2025-09-03 00:59:37,1053499
2025-09-03 00:59:37,1053567
2025-09-03 00:59:37,1053739
2025-09-03 00:59:37,1053783
2025-09-03 00:59:37,1053853
2025-09-03 00:59:37,1053885
2025-09-03 00:59:37,1053875
2025-09-03 00:59:37,1053731
2025-09-03 00:59:37,1053369
2025-09-03 00:59:37,1052865
2025-09-03 00:59:37,1052319
2025-09-03 00:59:37,1051825
2025-09-03 00:59:37,1051377
2025-09-03 00:59:37,1050972
2025-09-03 00:59:37,1050620
2025-09-03 00:59:37,1050382
2025-09-03 00:59:37,1050176
2025-09-03 00:59:37,1050048
2025-09-03 00:59:37,1049921
2025-09-03 00:59:37,1049883
2025-09-03 00:59:37,1049927
2025-09-03 00:59:37,1049911
2025-09-03 00:59:37,1050028
2025-09-03 00:59:37,1050088
2025-09-03 00:59:37,1050016
2025-09-03 00:59:38,1050120
2025-09-03 00:59:38,1050084
2025-09-03 00:59:38,1050090
2025-09-03 00:59:38,1050159
2025-09-03 00:59:38,1050105
2025-09-03 00:59:38,1050195
2025-09-03 00:59:38,1050271
2025-09-03 00:59:38,1050257
2025-09-03 00:59:38,1050254
2025-09-03 00:59:38,1050282
2025-09-03 00:59:38,1050349
2025-09-03 00:59:38,1050301
2025-09-03 00:59:38,1050374
2025-09-03 00:59:38,1050333
2025-09-03 00:59:38,1050419
2025-09-03 00:59:38,1050480
2025-09-03 00:59:38,1050441
2025-09-03 00:59:38,1050554
2025-09-03 00:59:38,1050494
2025-09-03 00:59:38,1050624
2025-09-03 00:59:38,1050572
2025-09-03 00:59:38,1050573
2025-09-03 00:59:38,1050576
2025-09-03 00:59:38,1050640
2025-09-03 00:59:38,1050585
2025-09-03 00:59:38,1050698
2025-09-03 00:59:38,1050766
2025-09-03 00:59:38,1050791
2025-09-03 00:59:38,1050796
2025-09-03 00:59:38,1050917
2025-09-03 00:59:38,1050852
2025-09-03 00:59:38,1050808
2025-09-03 00:59:38,1050613
2025-09-03 00:59:38,1050513
2025-09-03 00:59:38,1050156
2025-09-03 00:59:38,1049700
2025-09-03 00:59:38,1049603
2025-09-03 00:59:38,1049439
2025-09-03 00:59:38,1049367
2025-09-03 00:59:38,1049242
2025-09-03 00:59:38,1049161
2025-09-03 00:59:38,1049105
2025-09-03 00:59:38,1049161
2025-09-03 00:59:38,1049248
2025-09-03 00:59:38,1049290
2025-09-03 00:59:38,1049308
2025-09-03 00:59:38,1049708
2025-09-03 00:59:38,1049827
2025-09-03 00:59:38,1050056
2025-09-03 00:59:38,1050301
2025-09-03 00:59:38,1050292
2025-09-03 00:59:38,1050257
2025-09-03 00:59:38,1050197
2025-09-03 00:59:38,1050216
2025-09-03 00:59:38,1050206
2025-09-03 00:59:38,1050122
2025-09-03 00:59:38,1050067
2025-09-03 00:59:38,1050075
2025-09-03 00:59:38,1049834
2025-09-03 00:59:38,1049458
2025-09-03 00:59:38,1049247
2025-09-03 00:59:38,1048990
2025-09-03 00:59:38,1048583
2025-09-03 00:59:38,1048331
2025-09-03 00:59:38,1047978
2025-09-03 00:59:38,1047775
2025-09-03 00:59:38,1047466
2025-09-03 00:59:38,1047206
2025-09-03 00:59:38,1046998
2025-09-03 00:59:38,1046935
2025-09-03 00:59:38,1046834
2025-09-03 00:59:38,1046906
2025-09-03 00:59:38,1046977
2025-09-03 00:59:38,1046896
2025-09-03 00:59:38,1046851
2025-09-03 00:59:38,1046904
2025-09-03 00:59:38,1047067
2025-09-03 00:59:38,1047251
2025-09-03 00:59:38,1047575
2025-09-03 00:59:38,1047923
2025-09-03 00:59:38,1048193
2025-09-03 00:59:38,1048517
2025-09-03 00:59:38,1048753
2025-09-03 00:59:38,1049128
2025-09-03 00:59:38,1049325
2025-09-03 00:59:38,1049395
2025-09-03 00:59:38,1049473
2025-09-03 00:59:38,1049610
2025-09-03 00:59:38,1049735
2025-09-03 00:59:38,1049878
2025-09-03 00:59:38,1050011
2025-09-03 00:59:38,1050100
2025-09-03 00:59:38,1050148
2025-09-03 00:59:38,1050187
2025-09-03 00:59:38,1050268
2025-09-03 00:59:38,1050302
2025-09-03 00:59:38,1050359
2025-09-03 00:59:38,1050452
2025-09-03 00:59:38,1050537
2025-09-03 00:59:39,1050657
2025-09-03 00:59:39,1050697
2025-09-03 00:59:39,1050745
2025-09-03 00:59:39,1050727
2025-09-03 00:59:39,1050868
2025-09-03 00:59:39,1050921
2025-09-03 00:59:39,1050989
2025-09-03 00:59:39,1051081
2025-09-03 00:59:39,1051244
2025-09-03 00:59:39,1051314
2025-09-03 00:59:39,1051394
2025-09-03 00:59:39,1051460
2025-09-03 00:59:39,1051491
2025-09-03 00:59:39,1051520
2025-09-03 00:59:39,1051730
2025-09-03 00:59:39,1051726
2025-09-03 00:59:39,1051865
2025-09-03 00:59:39,1051927
2025-09-03 00:59:39,1052036
2025-09-03 00:59:39,1052259
2025-09-03 00:59:39,1052366
2025-09-03 00:59:39,1052389
2025-09-03 00:59:39,1052384
2025-09-03 00:59:38,1052548
2025-09-03 00:59:39,1052481
2025-09-03 00:59:39,1052623
2025-09-03 00:59:39,1052681
2025-09-03 00:59:39,1052792
2025-09-03 00:59:39,1052795
2025-09-03 00:59:39,1052734
2025-09-03 00:59:39,1052512
2025-09-03 00:59:39,1052175
2025-09-03 00:59:39,1051751
2025-09-03 00:59:39,1051311
2025-09-03 00:59:39,1050853
2025-09-03 00:59:39,1050585
2025-09-03 00:59:39,1050232
2025-09-03 00:59:39,1050070
2025-09-03 00:59:39,1049981
2025-09-03 00:59:39,1049818
2025-09-03 00:59:39,1049840
2025-09-03 00:59:39,1049866
2025-09-03 00:59:39,1049944
2025-09-03 00:59:39,1050008
2025-09-03 00:59:39,1050108
2025-09-03 00:59:39,1050182
2025-09-03 00:59:39,1050316
2025-09-03 00:59:39,1050442
2025-09-03 00:59:39,1050530
2025-09-03 00:59:39,1050561
2025-09-03 00:59:39,1050586
2025-09-03 00:59:39,1050579
2025-09-03 00:59:39,1050483
2025-09-03 00:59:39,1050404
2025-09-03 00:59:39,1050306
2025-09-03 00:59:39,1050369
2025-09-03 00:59:39,1050433
2025-09-03 00:59:39,1050459
2025-09-03 00:59:39,1050607
2025-09-03 00:59:39,1050710
2025-09-03 00:59:39,1050836
2025-09-03 00:59:39,1050861
2025-09-03 00:59:39,1050861
2025-09-03 00:59:39,1050934
2025-09-03 00:59:39,1050991
2025-09-03 00:59:39,1051070
2025-09-03 00:59:39,1051067
2025-09-03 00:59:39,1051104
2025-09-03 00:59:39,1051308
2025-09-03 00:59:39,1051491
2025-09-03 00:59:39,1051604
2025-09-03 00:59:39,1051262
2025-09-03 00:59:39,1050418
2025-09-03 00:59:39,1049629
2025-09-03 00:59:39,1049116
2025-09-03 00:59:39,1048549
2025-09-03 00:59:39,1048354
2025-09-03 00:59:39,1048418
2025-09-03 00:59:39,1048674
2025-09-03 00:59:39,1048942
2025-09-03 00:59:39,1049675
2025-09-03 00:59:39,1050601
2025-09-03 00:59:39,1051387
2025-09-03 00:59:39,1052211
2025-09-03 00:59:39,1052795
2025-09-03 00:59:39,1053416
2025-09-03 00:59:39,1053917
2025-09-03 00:59:39,1054257
2025-09-03 00:59:39,1054685
2025-09-03 00:59:39,1055022
2025-09-03 00:59:39,1055211
2025-09-03 00:59:39,1055252
2025-09-03 00:59:39,1055402
2025-09-03 00:59:39,1055432
2025-09-03 00:59:39,1055577
2025-09-03 00:59:39,1056103
2025-09-03 00:59:39,1056591
2025-09-03 00:59:39,1057067
2025-09-03 00:59:39,1057685
2025-09-03 00:59:39,1058103
2025-09-03 00:59:40,1058425
2025-09-03 00:59:40,1058803
2025-09-03 00:59:40,1059559
2025-09-03 00:59:40,1060410
2025-09-03 00:59:40,1061795
2025-09-03 00:59:40,1062747
2025-09-03 00:59:40,1063975
2025-09-03 00:59:40,1065159
2025-09-03 00:59:40,1066051
2025-09-03 00:59:40,1066664
2025-09-03 00:59:40,1067046
2025-09-03 00:59:40,1067404
2025-09-03 00:59:40,1067624
2025-09-03 00:59:40,1067979
2025-09-03 00:59:40,1067881
2025-09-03 00:59:40,1067584
2025-09-03 00:59:40,1067391
2025-09-03 00:59:40,1067118
2025-09-03 00:59:40,1066870
2025-09-03 00:59:40,1066335
2025-09-03 00:59:40,1065830
2025-09-03 00:59:40,1065338
2025-09-03 00:59:40,1064684
2025-09-03 00:59:40,1064133
2025-09-03 00:59:40,1063503
2025-09-03 00:59:40,1062702
2025-09-03 00:59:40,1062150
2025-09-03 00:59:40,1061705
2025-09-03 00:59:40,1061340
2025-09-03 00:59:40,1060921
2025-09-03 00:59:40,1060585
2025-09-03 00:59:40,1060409
2025-09-03 00:59:40,1060296
2025-09-03 00:59:40,1060181
2025-09-03 00:59:40,1060198
2025-09-03 00:59:40,1060348
2025-09-03 00:59:40,1060472
2025-09-03 00:59:40,1060589
2025-09-03 00:59:40,1060835
2025-09-03 00:59:40,1060844
2025-09-03 00:59:40,1060888
2025-09-03 00:59:40,1060875
2025-09-03 00:59:40,1060769
2025-09-03 00:59:40,1060750
2025-09-03 00:59:40,1060793
2025-09-03 00:59:40,1060775
2025-09-03 00:59:40,1060734
2025-09-03 00:59:40,1060742
2025-09-03 00:59:40,1060779
2025-09-03 00:59:40,1060818
2025-09-03 00:59:40,1060765
2025-09-03 00:59:40,1060810
2025-09-03 00:59:40,1060699
2025-09-03 00:59:40,1060719
2025-09-03 00:59:40,1060956
2025-09-03 00:59:40,1061056
2025-09-03 00:59:40,1061038
2025-09-03 00:59:40,1060852
2025-09-03 00:59:40,1061030
2025-09-03 00:59:40,1061005
2025-09-03 00:59:40,1061016
2025-09-03 00:59:40,1061029
2025-09-03 00:59:40,1060972
2025-09-03 00:59:40,1061115
2025-09-03 00:59:40,1061137
2025-09-03 00:59:40,1061311
2025-09-03 00:59:40,1061357
2025-09-03 00:59:40,1061429
2025-09-03 00:59:40,1061700
2025-09-03 00:59:40,1061735
2025-09-03 00:59:40,1061802
2025-09-03 00:59:40,1061962
2025-09-03 00:59:40,1062103
2025-09-03 00:59:40,1062163
2025-09-03 00:59:40,1062316
2025-09-03 00:59:40,1062451
2025-09-03 00:59:40,1062602
2025-09-03 00:59:40,1062599
2025-09-03 00:59:40,1062809
2025-09-03 00:59:40,1062862
2025-09-03 00:59:40,1062959
2025-09-03 00:59:40,1062900
2025-09-03 00:59:40,1062805
2025-09-03 00:59:40,1062605
2025-09-03 00:59:40,1062465
2025-09-03 00:59:40,1062212
2025-09-03 00:59:40,1061924
2025-09-03 00:59:40,1061596
2025-09-03 00:59:40,1061282
2025-09-03 00:59:40,1061071
2025-09-03 00:59:40,1060954
2025-09-03 00:59:40,1060823
2025-09-03 00:59:40,1060880
2025-09-03 00:59:40,1060912
2025-09-03 00:59:40,1060926
2025-09-03 00:59:40,1060994
2025-09-03 00:59:40,1061071
2025-09-03 00:59:40,1061093
2025-09-03 00:59:40,1061209
2025-09-03 00:59:40,1061228
2025-09-03 00:59:41,1061361
2025-09-03 00:59:41,1061467
2025-09-03 00:59:41,1061492
2025-09-03 00:59:41,1061512
2025-09-03 00:59:41,1061544
2025-09-03 00:59:41,1061579
2025-09-03 00:59:41,1061659
2025-09-03 00:59:41,1061798
2025-09-03 00:59:41,1061889
2025-09-03 00:59:41,1062015
2025-09-03 00:59:41,1062178
2025-09-03 00:59:41,1062185
2025-09-03 00:59:41,1062356
2025-09-03 00:59:41,1062358
2025-09-03 00:59:41,1062556
2025-09-03 00:59:41,1062570
2025-09-03 00:59:41,1062728
2025-09-03 00:59:41,1062735
2025-09-03 00:59:41,1062777
2025-09-03 00:59:41,1062750
2025-09-03 00:59:41,1062838
2025-09-03 00:59:41,1062865
2025-09-03 00:59:41,1063031
2025-09-03 00:59:41,1063119
2025-09-03 00:59:41,1063253
2025-09-03 00:59:41,1063574
2025-09-03 00:59:41,1063812
2025-09-03 00:59:41,1064009
2025-09-03 00:59:41,1064183
2025-09-03 00:59:41,1064206
2025-09-03 00:59:41,1064186
2025-09-03 00:59:41,1064274
2025-09-03 00:59:41,1064696
2025-09-03 00:59:41,1065154
2025-09-03 00:59:41,1065616
2025-09-03 00:59:41,1065806
2025-09-03 00:59:41,1065962
2025-09-03 00:59:41,1066197
2025-09-03 00:59:41,1065850
2025-09-03 00:59:41,1065962
2025-09-03 00:59:41,1065937
2025-09-03 00:59:41,1065750
2025-09-03 00:59:41,1065616
2025-09-03 00:59:41,1065828
2025-09-03 00:59:41,1065950
2025-09-03 00:59:41,1066281
2025-09-03 00:59:41,1067022
2025-09-03 00:59:41,1067344
2025-09-03 00:59:41,1067694
2025-09-03 00:59:41,1067875
2025-09-03 00:59:41,1067803
2025-09-03 00:59:41,1067930
2025-09-03 00:59:41,1067917
2025-09-03 00:59:41,1067847
2025-09-03 00:59:41,1067780
2025-09-03 00:59:41,1067696
2025-09-03 00:59:41,1067125
2025-09-03 00:59:41,1066693
2025-09-03 00:59:41,1066351
2025-09-03 00:59:41,1066088
2025-09-03 00:59:41,1066016
2025-09-03 00:59:41,1066272
2025-09-03 00:59:41,1066419
2025-09-03 00:59:41,1066446
2025-09-03 00:59:41,1066134
2025-09-03 00:59:41,1065885
2025-09-03 00:59:41,1065826
2025-09-03 00:59:41,1065646
2025-09-03 00:59:41,1065607
2025-09-03 00:59:41,1065487
2025-09-03 00:59:41,1065475
2025-09-03 00:59:41,1065071
2025-09-03 00:59:41,1064578
2025-09-03 00:59:41,1063986
2025-09-03 00:59:41,1063397
2025-09-03 00:59:41,1062914
2025-09-03 00:59:41,1062475
2025-09-03 00:59:41,1062333
2025-09-03 00:59:41,1062248
2025-09-03 00:59:41,1062329
2025-09-03 00:59:41,1062414
2025-09-03 00:59:41,1062992
2025-09-03 00:59:41,1063758
2025-09-03 00:59:41,1063964
2025-09-03 00:59:41,1064138
2025-09-03 00:59:41,1064255
2025-09-03 00:59:41,1064240
2025-09-03 00:59:41,1064317
2025-09-03 00:59:41,1064492
2025-09-03 00:59:41,1064529
2025-09-03 00:59:41,1064570
2025-09-03 00:59:41,1064423
2025-09-03 00:59:41,1064366
2025-09-03 00:59:41,1064443
2025-09-03 00:59:41,1064407
2025-09-03 00:59:41,1064544
2025-09-03 00:59:41,1064618
2025-09-03 00:59:41,1064837
2025-09-03 00:59:41,1065054
2025-09-03 00:59:41,1065276
2025-09-03 00:59:42,1065429
2025-09-03 00:59:42,1065428
2025-09-03 00:59:42,1065623
2025-09-03 00:59:42,1065468
2025-09-03 00:59:42,1065549
2025-09-03 00:59:42,1065421
2025-09-03 00:59:42,1065367
2025-09-03 00:59:42,1065347
2025-09-03 00:59:42,1065360
2025-09-03 00:59:42,1065388
2025-09-03 00:59:42,1065431
2025-09-03 00:59:42,1065452
2025-09-03 00:59:42,1065470
2025-09-03 00:59:42,1065445
2025-09-03 00:59:42,1065482
2025-09-03 00:59:42,1065597
2025-09-03 00:59:42,1065647
2025-09-03 00:59:42,1065714
2025-09-03 00:59:42,1065720
2025-09-03 00:59:42,1065753
2025-09-03 00:59:42,1065710
2025-09-03 00:59:42,1065723
2025-09-03 00:59:42,1065743
2025-09-03 00:59:42,1065835
2025-09-03 00:59:42,1065751
2025-09-03 00:59:42,1065837
2025-09-03 00:59:42,1065847
2025-09-03 00:59:42,1065835
2025-09-03 00:59:42,1065954
2025-09-03 00:59:42,1066004
2025-09-03 00:59:42,1065975
2025-09-03 00:59:42,1065980
2025-09-03 00:59:42,1065972
2025-09-03 00:59:42,1065943
2025-09-03 00:59:42,1065978
2025-09-03 00:59:42,1065931
2025-09-03 00:59:42,1065925
2025-09-03 00:59:42,1065996
2025-09-03 00:59:42,1065966
2025-09-03 00:59:42,1066013
2025-09-03 00:59:42,1065980
2025-09-03 00:59:42,1065980
2025-09-03 00:59:42,1065902
2025-09-03 00:59:42,1065998
2025-09-03 00:59:42,1065940
2025-09-03 00:59:42,1065941
2025-09-03 00:59:42,1065901
2025-09-03 00:59:42,1065746
2025-09-03 00:59:42,1065844
2025-09-03 00:59:42,1065844
2025-09-03 00:59:42,1065880
2025-09-03 00:59:42,1065813
2025-09-03 00:59:42,1065841
2025-09-03 00:59:42,1065802
2025-09-03 00:59:42,1065656
2025-09-03 00:59:42,1064967
2025-09-03 00:59:42,1064621
2025-09-03 00:59:42,1064077
2025-09-03 00:59:42,1063804
2025-09-03 00:59:42,1063594
2025-09-03 00:59:42,1063202
2025-09-03 00:59:42,1062807
2025-09-03 00:59:42,1062497
2025-09-03 00:59:42,1062213
2025-09-03 00:59:42,1061990
2025-09-03 00:59:42,1061885
2025-09-03 00:59:42,1061743
2025-09-03 00:59:42,1061618
2025-09-03 00:59:42,1061454
2025-09-03 00:59:42,1061368
2025-09-03 00:59:42,1061358
2025-09-03 00:59:42,1061227
2025-09-03 00:59:42,1061207
2025-09-03 00:59:42,1061121
2025-09-03 00:59:42,1061038
2025-09-03 00:59:42,1061043
2025-09-03 00:59:42,1060984
2025-09-03 00:59:42,1060910
2025-09-03 00:59:42,1060949
2025-09-03 00:59:42,1061116
2025-09-03 00:59:42,1061129
2025-09-03 00:59:42,1061179
2025-09-03 00:59:42,1061210
2025-09-03 00:59:42,1061357
2025-09-03 00:59:42,1061341
2025-09-03 00:59:42,1061337
2025-09-03 00:59:42,1061410
2025-09-03 00:59:42,1061482
2025-09-03 00:59:42,1061446
2025-09-03 00:59:42,1061388
2025-09-03 00:59:42,1061387
2025-09-03 00:59:42,1061306
2025-09-03 00:59:42,1061278
2025-09-03 00:59:42,1061372
2025-09-03 00:59:42,1061354
2025-09-03 00:59:42,1061369
2025-09-03 00:59:42,1061472
2025-09-03 00:59:42,1061610
2025-09-03 00:59:42,1061650
2025-09-03 00:59:43,1061709
2025-09-03 00:59:43,1061763
2025-09-03 00:59:43,1061781
2025-09-03 00:59:43,1061879
2025-09-03 00:59:43,1061888
2025-09-03 00:59:43,1061961
2025-09-03 00:59:43,1062092
2025-09-03 00:59:43,1062143
2025-09-03 00:59:43,1062115
2025-09-03 00:59:43,1062188
2025-09-03 00:59:43,1062174
2025-09-03 00:59:43,1062318
2025-09-03 00:59:43,1062251
2025-09-03 00:59:43,1062365
2025-09-03 00:59:43,1062433
2025-09-03 00:59:43,1062443
2025-09-03 00:59:43,1062496
2025-09-03 00:59:43,1062646
2025-09-03 00:59:43,1062630
2025-09-03 00:59:43,1062758
2025-09-03 00:59:43,1062791
2025-09-03 00:59:43,1062803
2025-09-03 00:59:43,1062934
2025-09-03 00:59:43,1062976
2025-09-03 00:59:43,1062943
2025-09-03 00:59:43,1063010
2025-09-03 00:59:43,1063090
2025-09-03 00:59:43,1063127
2025-09-03 00:59:43,1063220
2025-09-03 00:59:43,1063314
2025-09-03 00:59:43,1063286
2025-09-03 00:59:43,1063392
2025-09-03 00:59:43,1063408
2025-09-03 00:59:43,1063410
2025-09-03 00:59:43,1063580
2025-09-03 00:59:43,1063592
2025-09-03 00:59:43,1063524
2025-09-03 00:59:43,1063464
2025-09-03 00:59:43,1063281
2025-09-03 00:59:43,1062956
2025-09-03 00:59:43,1062515
2025-09-03 00:59:43,1062189
2025-09-03 00:59:43,1061784
2025-09-03 00:59:43,1061496
2025-09-03 00:59:43,1061162
2025-09-03 00:59:43,1060762
2025-09-03 00:59:43,1060367
2025-09-03 00:59:43,1060177
2025-09-03 00:59:43,1060122
2025-09-03 00:59:43,1059993
2025-09-03 00:59:43,1059869
2025-09-03 00:59:43,1059826
2025-09-03 00:59:43,1059817
2025-09-03 00:59:43,1059806
2025-09-03 00:59:43,1059770
2025-09-03 00:59:43,1059757
2025-09-03 00:59:43,1059743
2025-09-03 00:59:43,1059753
2025-09-03 00:59:43,1059759
2025-09-03 00:59:43,1059709
2025-09-03 00:59:43,1059696
2025-09-03 00:59:43,1059744
2025-09-03 00:59:43,1059698
2025-09-03 00:59:43,1059706
2025-09-03 00:59:43,1059834
2025-09-03 00:59:43,1059873
2025-09-03 00:59:43,1059849
2025-09-03 00:59:43,1059992
2025-09-03 00:59:43,1060095
2025-09-03 00:59:43,1060185
2025-09-03 00:59:43,1060135
2025-09-03 00:59:43,1060098
2025-09-03 00:59:43,1060127
2025-09-03 00:59:43,1060109
2025-09-03 00:59:43,1060040
2025-09-03 00:59:43,1060123
2025-09-03 00:59:43,1060099
2025-09-03 00:59:43,1060039
2025-09-03 00:59:43,1060088
2025-09-03 00:59:43,1060057
2025-09-03 00:59:43,1060080
2025-09-03 00:59:43,1060162
2025-09-03 00:59:43,1060298
2025-09-03 00:59:43,1060330
2025-09-03 00:59:43,1060396
2025-09-03 00:59:43,1060453
2025-09-03 00:59:43,1060510
2025-09-03 00:59:43,1060509
2025-09-03 00:59:43,1060536
2025-09-03 00:59:43,1060557
2025-09-03 00:59:43,1060648
2025-09-03 00:59:43,1060720
2025-09-03 00:59:43,1060802
2025-09-03 00:59:43,1060843
2025-09-03 00:59:43,1060948
2025-09-03 00:59:43,1061013
2025-09-03 00:59:43,1061084
2025-09-03 00:59:43,1061126
2025-09-03 00:59:43,1061168
2025-09-03 00:59:43,1061240
2025-09-03 00:59:44,1061332
2025-09-03 00:59:44,1061337
2025-09-03 00:59:44,1061453
2025-09-03 00:59:44,1061484
2025-09-03 00:59:44,1061536
2025-09-03 00:59:44,1061557
2025-09-03 00:59:44,1061661
2025-09-03 00:59:44,1061637
2025-09-03 00:59:44,1061678
2025-09-03 00:59:44,1061673
2025-09-03 00:59:44,1061785
2025-09-03 00:59:44,1061843
2025-09-03 00:59:44,1061809
2025-09-03 00:59:44,1061934
2025-09-03 00:59:44,1061926
2025-09-03 00:59:44,1061949
2025-09-03 00:59:44,1062026
2025-09-03 00:59:44,1061978
2025-09-03 00:59:44,1062005
2025-09-03 00:59:44,1061809
2025-09-03 00:59:44,1061471
2025-09-03 00:59:44,1061156
2025-09-03 00:59:44,1060787
2025-09-03 00:59:44,1060390
2025-09-03 00:59:44,1059885
2025-09-03 00:59:44,1059505
2025-09-03 00:59:44,1059196
2025-09-03 00:59:44,1058940
2025-09-03 00:59:44,1058729
2025-09-03 00:59:44,1058609
2025-09-03 00:59:44,1058619
2025-09-03 00:59:44,1058539
2025-09-03 00:59:44,1058476
2025-09-03 00:59:44,1058465
2025-09-03 00:59:44,1058565
2025-09-03 00:59:44,1058645
2025-09-03 00:59:44,1058694
2025-09-03 00:59:44,1058733
2025-09-03 00:59:44,1058734
2025-09-03 00:59:44,1058732
2025-09-03 00:59:44,1058714
2025-09-03 00:59:44,1058802
2025-09-03 00:59:44,1058800
2025-09-03 00:59:44,1058843
2025-09-03 00:59:44,1058844
2025-09-03 00:59:44,1058981
2025-09-03 00:59:44,1059162
2025-09-03 00:59:44,1059239
2025-09-03 00:59:44,1059253
2025-09-03 00:59:44,1059308
2025-09-03 00:59:44,1059411
2025-09-03 00:59:44,1059445
2025-09-03 00:59:44,1059360
2025-09-03 00:59:44,1059519
2025-09-03 00:59:44,1059486
2025-09-03 00:59:44,1059434
2025-09-03 00:59:44,1059492
2025-09-03 00:59:44,1059444
2025-09-03 00:59:44,1059466
2025-09-03 00:59:44,1059559
2025-09-03 00:59:44,1059631
2025-09-03 00:59:44,1059615
2025-09-03 00:59:44,1059644
2025-09-03 00:59:44,1059684
2025-09-03 00:59:44,1059658
2025-09-03 00:59:44,1059800
2025-09-03 00:59:44,1059801
2025-09-03 00:59:44,1059807
2025-09-03 00:59:44,1059874
2025-09-03 00:59:44,1059889
2025-09-03 00:59:44,1060026
2025-09-03 00:59:44,1060085
2025-09-03 00:59:44,1060170
2025-09-03 00:59:44,1060228
2025-09-03 00:59:44,1060277
2025-09-03 00:59:44,1060401
2025-09-03 00:59:44,1060363
2025-09-03 00:59:44,1060421
2025-09-03 00:59:44,1060458
2025-09-03 00:59:44,1060558
2025-09-03 00:59:44,1060528
2025-09-03 00:59:44,1060593
2025-09-03 00:59:44,1060722
2025-09-03 00:59:44,1060705
2025-09-03 00:59:44,1060754
2025-09-03 00:59:44,1060803
2025-09-03 00:59:44,1060897
2025-09-03 00:59:44,1061035
2025-09-03 00:59:44,1060992
2025-09-03 00:59:44,1061104
2025-09-03 00:59:44,1061186
2025-09-03 00:59:44,1061127
2025-09-03 00:59:44,1061237
2025-09-03 00:59:44,1061264
2025-09-03 00:59:44,1061370
2025-09-03 00:59:44,1061378
2025-09-03 00:59:44,1061472
2025-09-03 00:59:44,1061456
2025-09-03 00:59:44,1061537
2025-09-03 00:59:44,1061597
2025-09-03 00:59:45,1061515
2025-09-03 00:59:45,1061653
2025-09-03 00:59:45,1061609
2025-09-03 00:59:45,1061684
2025-09-03 00:59:45,1061607
2025-09-03 00:59:45,1061623
2025-09-03 00:59:45,1061610
2025-09-03 00:59:45,1061625
2025-09-03 00:59:45,1061487
2025-09-03 00:59:45,1061356
2025-09-03 00:59:45,1061025
2025-09-03 00:59:45,1060611
2025-09-03 00:59:45,1060196
2025-09-03 00:59:45,1059777
2025-09-03 00:59:45,1059292
2025-09-03 00:59:45,1058910
2025-09-03 00:59:45,1058615
2025-09-03 00:59:45,1058252
2025-09-03 00:59:45,1058140
2025-09-03 00:59:45,1058024
2025-09-03 00:59:45,1057875
2025-09-03 00:59:45,1057807
2025-09-03 00:59:45,1057763
2025-09-03 00:59:45,1057762
2025-09-03 00:59:45,1057756
2025-09-03 00:59:45,1057695
2025-09-03 00:59:45,1057860
2025-09-03 00:59:45,1057876
2025-09-03 00:59:45,1057971
2025-09-03 00:59:45,1057943
2025-09-03 00:59:45,1057949
2025-09-03 00:59:45,1057956
2025-09-03 00:59:45,1057882
2025-09-03 00:59:45,1057936
2025-09-03 00:59:45,1057893
2025-09-03 00:59:45,1057960
2025-09-03 00:59:45,1058039
2025-09-03 00:59:45,1058133
2025-09-03 00:59:45,1058192
2025-09-03 00:59:45,1058219
2025-09-03 00:59:45,1058298
2025-09-03 00:59:45,1058344
2025-09-03 00:59:45,1058373
2025-09-03 00:59:45,1058361
2025-09-03 00:59:45,1058296
2025-09-03 00:59:45,1058263
2025-09-03 00:59:45,1058244
2025-09-03 00:59:45,1058283
2025-09-03 00:59:45,1058218
2025-09-03 00:59:45,1058194
2025-09-03 00:59:45,1058259
2025-09-03 00:59:45,1058299
2025-09-03 00:59:45,1058365
2025-09-03 00:59:45,1058318
2025-09-03 00:59:45,1058476
2025-09-03 00:59:45,1058594
2025-09-03 00:59:45,1058590
2025-09-03 00:59:45,1058642
2025-09-03 00:59:45,1058683
2025-09-03 00:59:45,1058661
2025-09-03 00:59:45,1058658
2025-09-03 00:59:45,1058741
2025-09-03 00:59:45,1058825
2025-09-03 00:59:45,1058876
2025-09-03 00:59:45,1058913
2025-09-03 00:59:45,1059011
2025-09-03 00:59:45,1059106
2025-09-03 00:59:45,1059101
2025-09-03 00:59:45,1059250
2025-09-03 00:59:45,1059344
2025-09-03 00:59:45,1059369
2025-09-03 00:59:45,1059441
2025-09-03 00:59:45,1059467
2025-09-03 00:59:45,1059553
2025-09-03 00:59:45,1059524
2025-09-03 00:59:45,1059581
2025-09-03 00:59:45,1059738
2025-09-03 00:59:45,1059760
2025-09-03 00:59:45,1059749
2025-09-03 00:59:45,1059861
2025-09-03 00:59:45,1059911
2025-09-03 00:59:45,1059980
2025-09-03 00:59:45,1060053
2025-09-03 00:59:45,1060147
2025-09-03 00:59:45,1060233
2025-09-03 00:59:45,1060308
2025-09-03 00:59:45,1060339
2025-09-03 00:59:45,1060421
2025-09-03 00:59:45,1060402
2025-09-03 00:59:45,1060352
2025-09-03 00:59:45,1060131
2025-09-03 00:59:45,1059853
2025-09-03 00:59:45,1059532
2025-09-03 00:59:45,1059148
2025-09-03 00:59:45,1058754
2025-09-03 00:59:45,1058349
2025-09-03 00:59:45,1057996
2025-09-03 00:59:45,1057726
2025-09-03 00:59:45,1057566
2025-09-03 00:59:45,1057344
2025-09-03 00:59:46,1057332
2025-09-03 00:59:46,1057221
2025-09-03 00:59:46,1057188
2025-09-03 00:59:46,1057119
2025-09-03 00:59:46,1057178
2025-09-03 00:59:46,1057271
2025-09-03 00:59:46,1057315
2025-09-03 00:59:46,1057387
