timestamp,value
2025-09-10 18:12:03,157248
2025-09-10 18:12:03,157248
2025-09-10 18:12:03,106049
2025-09-10 18:12:03,105745
2025-09-10 18:12:03,105575
2025-09-10 18:12:03,105269
2025-09-10 18:12:03,104996
2025-09-10 18:12:03,104718
2025-09-10 18:12:03,104283
2025-09-10 18:12:03,103940
2025-09-10 18:12:03,103592
2025-09-10 18:12:03,103304
2025-09-10 18:12:03,103003
2025-09-10 18:12:03,102632
2025-09-10 18:12:03,102288
2025-09-10 18:12:03,101931
2025-09-10 18:12:03,101492
2025-09-10 18:12:03,101255
2025-09-10 18:12:03,101020
2025-09-10 18:12:03,100826
2025-09-10 18:12:03,100812
2025-09-10 18:12:03,100758
2025-09-10 18:12:03,100702
2025-09-10 18:12:03,100680
2025-09-10 18:12:03,100593
2025-09-10 18:12:03,48099
2025-09-10 18:12:03,48064
2025-09-10 18:12:03,148701
2025-09-10 18:12:03,148614
2025-09-10 18:12:03,148506
2025-09-10 18:12:03,148480
2025-09-10 18:12:03,148346
2025-09-10 18:12:03,148312
2025-09-10 18:12:03,148285
2025-09-10 18:12:03,148324
2025-09-10 18:12:03,148353
2025-09-10 18:12:03,148396
2025-09-10 18:12:03,148421
2025-09-10 18:12:03,148455
2025-09-10 18:12:03,340750
2025-09-10 18:12:03,340732
2025-09-10 18:12:03,285687
2025-09-10 18:12:03,285688
2025-09-10 18:12:03,285868
2025-09-10 18:12:03,285938
2025-09-10 18:12:03,285993
2025-09-10 18:12:03,286051
2025-09-10 18:12:03,285869
2025-09-10 18:12:03,285892
2025-09-10 18:12:03,287358
2025-09-10 18:12:03,287823
2025-09-10 18:12:03,287069
2025-09-10 18:12:03,286586
2025-09-10 18:12:03,1420150
2025-09-10 18:12:04,1419423
2025-09-10 18:12:04,1428221
2025-09-10 18:12:04,1425286
2025-09-10 18:12:04,1424955
2025-09-10 18:12:04,1425572
2025-09-10 18:12:04,1425730
2025-09-10 18:12:04,1425752
2025-09-10 18:12:04,1425515
2025-09-10 18:12:04,1425231
2025-09-10 18:12:04,1425311
2025-09-10 18:12:04,1425492
2025-09-10 18:12:04,1425599
2025-09-10 18:12:04,1425666
2025-09-10 18:12:04,1414751
2025-09-10 18:12:04,1414605
2025-09-10 18:12:04,1426745
2025-09-10 18:12:04,1426697
2025-09-10 18:12:04,1426671
2025-09-10 18:12:04,1426568
2025-09-10 18:12:04,1426299
2025-09-10 18:12:04,1425859
2025-09-10 18:12:04,1425665
2025-09-10 18:12:04,1425348
2025-09-10 18:12:04,1425953
2025-09-10 18:12:04,1429182
2025-09-10 18:12:04,1431510
2025-09-10 18:12:04,1431139
2025-09-10 18:12:04,1430818
2025-09-10 18:12:04,1429940
2025-09-10 18:12:04,1428251
2025-09-10 18:12:04,1426413
2025-09-10 18:12:04,1425950
2025-09-10 18:12:04,1426008
2025-09-10 18:12:04,1425915
2025-09-10 18:12:04,1425775
2025-09-10 18:12:04,1425754
2025-09-10 18:12:04,1425897
2025-09-10 18:12:04,1426180
2025-09-10 18:12:04,1426580
2025-09-10 18:12:04,1427412
2025-09-10 18:12:04,1428659
2025-09-10 18:12:04,1429225
2025-09-10 18:12:04,1429596
2025-09-10 18:12:04,1430467
2025-09-10 18:12:04,1431190
2025-09-10 18:12:04,1431249
2025-09-10 18:12:04,1430869
2025-09-10 18:12:04,1430514
2025-09-10 18:12:04,1430088
2025-09-10 18:12:04,1429602
2025-09-10 18:12:04,1429033
2025-09-10 18:12:04,1428353
2025-09-10 18:12:04,1427662
2025-09-10 18:12:04,1427199
2025-09-10 18:12:04,1426976
2025-09-10 18:12:04,1426937
2025-09-10 18:12:04,1426951
2025-09-10 18:12:04,1427033
2025-09-10 18:12:04,1427194
2025-09-10 18:12:04,1427436
2025-09-10 18:12:04,1427634
2025-09-10 18:12:04,1427698
2025-09-10 18:12:04,1427804
2025-09-10 18:12:04,1427917
2025-09-10 18:12:04,1427933
2025-09-10 18:12:04,1427987
2025-09-10 18:12:04,1427916
2025-09-10 18:12:04,1427787
2025-09-10 18:12:04,1427748
2025-09-10 18:12:04,1427648
2025-09-10 18:12:04,1427569
2025-09-10 18:12:04,1427651
2025-09-10 18:12:04,1427747
2025-09-10 18:12:04,1427851
2025-09-10 18:12:04,1427767
2025-09-10 18:12:04,1427365
2025-09-10 18:12:04,1427123
2025-09-10 18:12:04,1426619
2025-09-10 18:12:04,1426099
2025-09-10 18:12:04,1425524
2025-09-10 18:12:04,1424810
2025-09-10 18:12:04,1423973
2025-09-10 18:12:04,1423559
2025-09-10 18:12:04,1423200
2025-09-10 18:12:04,1422902
2025-09-10 18:12:04,1422576
2025-09-10 18:12:04,1422440
2025-09-10 18:12:04,1422209
2025-09-10 18:12:04,1422043
2025-09-10 18:12:04,1421802
2025-09-10 18:12:04,1421605
2025-09-10 18:12:04,1421372
2025-09-10 18:12:04,1421236
2025-09-10 18:12:04,1421005
2025-09-10 18:12:04,1420718
2025-09-10 18:12:04,1420477
2025-09-10 18:12:04,1420362
2025-09-10 18:12:04,1420249
2025-09-10 18:12:04,1420195
2025-09-10 18:12:05,1420068
2025-09-10 18:12:05,1420084
2025-09-10 18:12:05,1420130
2025-09-10 18:12:05,1420166
2025-09-10 18:12:05,1420267
2025-09-10 18:12:05,1420211
2025-09-10 18:12:05,1420142
2025-09-10 18:12:05,1420156
2025-09-10 18:12:05,1420068
2025-09-10 18:12:05,1419991
2025-09-10 18:12:05,1419902
2025-09-10 18:12:05,1419783
2025-09-10 18:12:05,1419702
2025-09-10 18:12:05,1419750
2025-09-10 18:12:05,1419741
2025-09-10 18:12:05,1419727
2025-09-10 18:12:05,1419583
2025-09-10 18:12:05,1419508
2025-09-10 18:12:05,1419463
2025-09-10 18:12:05,1419478
2025-09-10 18:12:05,1419328
2025-09-10 18:12:05,1419297
2025-09-10 18:12:05,1419224
2025-09-10 18:12:05,1419192
2025-09-10 18:12:05,1419169
2025-09-10 18:12:05,1419131
2025-09-10 18:12:05,1419110
2025-09-10 18:12:05,1419124
2025-09-10 18:12:05,1419251
2025-09-10 18:12:05,1419401
2025-09-10 18:12:05,1419307
2025-09-10 18:12:05,1419218
2025-09-10 18:12:05,1418977
2025-09-10 18:12:05,1418758
2025-09-10 18:12:05,1418792
2025-09-10 18:12:05,1418917
2025-09-10 18:12:05,1419139
2025-09-10 18:12:05,1419343
2025-09-10 18:12:05,1419795
2025-09-10 18:12:05,1420106
2025-09-10 18:12:05,1420382
2025-09-10 18:12:05,1420407
2025-09-10 18:12:05,1420494
2025-09-10 18:12:05,1420634
2025-09-10 18:12:05,1420663
2025-09-10 18:12:05,1420678
2025-09-10 18:12:05,1420744
2025-09-10 18:12:05,1420750
2025-09-10 18:12:05,1420888
2025-09-10 18:12:05,1421035
2025-09-10 18:12:05,1420991
2025-09-10 18:12:05,1420892
2025-09-10 18:12:05,1420642
2025-09-10 18:12:05,1420040
2025-09-10 18:12:05,1419519
2025-09-10 18:12:05,1418927
2025-09-10 18:12:05,1418294
2025-09-10 18:12:05,1417786
2025-09-10 18:12:05,1417336
2025-09-10 18:12:05,1416972
2025-09-10 18:12:05,1416678
2025-09-10 18:12:05,1416225
2025-09-10 18:12:05,1416096
2025-09-10 18:12:05,1415755
2025-09-10 18:12:05,1415563
2025-09-10 18:12:05,1415450
2025-09-10 18:12:05,1415191
2025-09-10 18:12:05,1414995
2025-09-10 18:12:05,1414847
2025-09-10 18:12:05,1414592
2025-09-10 18:12:05,1414463
2025-09-10 18:12:05,1414339
2025-09-10 18:12:05,1414057
2025-09-10 18:12:05,1413919
2025-09-10 18:12:05,1413775
2025-09-10 18:12:05,1413771
2025-09-10 18:12:05,1413718
2025-09-10 18:12:05,1413569
2025-09-10 18:12:05,1413575
2025-09-10 18:12:05,1413605
2025-09-10 18:12:05,1413569
2025-09-10 18:12:05,1413624
2025-09-10 18:12:05,1413596
2025-09-10 18:12:05,1413566
2025-09-10 18:12:05,1413561
2025-09-10 18:12:05,1413543
2025-09-10 18:12:05,1413559
2025-09-10 18:12:05,1413392
2025-09-10 18:12:05,1413438
2025-09-10 18:12:05,1413442
2025-09-10 18:12:05,1413406
2025-09-10 18:12:05,1413287
2025-09-10 18:12:05,1413133
2025-09-10 18:12:05,1413041
2025-09-10 18:12:05,1412975
2025-09-10 18:12:05,1412949
2025-09-10 18:12:05,1412944
2025-09-10 18:12:05,1412895
2025-09-10 18:12:05,1412836
2025-09-10 18:12:05,1412792
2025-09-10 18:12:05,1412746
2025-09-10 18:12:06,1412780
2025-09-10 18:12:06,1412756
2025-09-10 18:12:06,1412710
2025-09-10 18:12:06,1412758
2025-09-10 18:12:06,1412802
2025-09-10 18:12:06,1412765
2025-09-10 18:12:06,1412797
2025-09-10 18:12:06,1412810
2025-09-10 18:12:06,1412904
2025-09-10 18:12:06,1412996
2025-09-10 18:12:06,1413015
2025-09-10 18:12:06,1413087
2025-09-10 18:12:06,1413019
2025-09-10 18:12:06,1413042
2025-09-10 18:12:06,1412981
2025-09-10 18:12:06,1412990
2025-09-10 18:12:06,1412973
2025-09-10 18:12:06,1413012
2025-09-10 18:12:06,1413024
2025-09-10 18:12:06,1413003
2025-09-10 18:12:06,1413122
2025-09-10 18:12:06,1413124
2025-09-10 18:12:06,1413154
2025-09-10 18:12:06,1413196
2025-09-10 18:12:06,1413243
2025-09-10 18:12:06,1413235
2025-09-10 18:12:06,1413270
2025-09-10 18:12:06,1413325
2025-09-10 18:12:06,1413287
2025-09-10 18:12:06,1412989
2025-09-10 18:12:06,1412609
2025-09-10 18:12:06,1412107
2025-09-10 18:12:06,1411453
2025-09-10 18:12:06,1410845
2025-09-10 18:12:06,1410345
2025-09-10 18:12:06,1409864
2025-09-10 18:12:06,1409427
2025-09-10 18:12:06,1409131
2025-09-10 18:12:06,1408915
2025-09-10 18:12:06,1408674
2025-09-10 18:12:06,1408522
2025-09-10 18:12:06,1408348
2025-09-10 18:12:06,1408272
2025-09-10 18:12:06,1408181
2025-09-10 18:12:06,1408100
2025-09-10 18:12:06,1408041
2025-09-10 18:12:06,1407928
2025-09-10 18:12:06,1407889
2025-09-10 18:12:06,1407792
2025-09-10 18:12:06,1407748
2025-09-10 18:12:06,1407665
2025-09-10 18:12:06,1407625
2025-09-10 18:12:06,1407652
2025-09-10 18:12:06,1407660
2025-09-10 18:12:06,1407728
2025-09-10 18:12:06,1407785
2025-09-10 18:12:06,1407967
2025-09-10 18:12:06,1408047
2025-09-10 18:12:06,1408261
2025-09-10 18:12:06,1408412
2025-09-10 18:12:06,1408634
2025-09-10 18:12:06,1408873
2025-09-10 18:12:06,1409468
2025-09-10 18:12:06,1410203
2025-09-10 18:12:06,1410894
2025-09-10 18:12:06,1411427
2025-09-10 18:12:06,1412518
2025-09-10 18:12:06,1414253
2025-09-10 18:12:06,1416149
2025-09-10 18:12:06,1418297
2025-09-10 18:12:06,1419949
2025-09-10 18:12:06,1420369
2025-09-10 18:12:06,1419896
2025-09-10 18:12:06,1419594
2025-09-10 18:12:06,1419895
2025-09-10 18:12:06,1420412
2025-09-10 18:12:06,1421386
2025-09-10 18:12:06,1421513
2025-09-10 18:12:06,1421821
2025-09-10 18:12:06,1421942
2025-09-10 18:12:06,1423306
2025-09-10 18:12:06,1425015
2025-09-10 18:12:06,1426122
2025-09-10 18:12:06,1427787
2025-09-10 18:12:06,1430000
2025-09-10 18:12:06,1431644
2025-09-10 18:12:06,1433217
2025-09-10 18:12:06,1435185
2025-09-10 18:12:06,1436465
2025-09-10 18:12:06,1437008
2025-09-10 18:12:06,1437256
2025-09-10 18:12:06,1436938
2025-09-10 18:12:06,1436299
2025-09-10 18:12:06,1435696
2025-09-10 18:12:06,1435480
2025-09-10 18:12:06,1435381
2025-09-10 18:12:06,1435894
2025-09-10 18:12:06,1436519
2025-09-10 18:12:06,1437233
2025-09-10 18:12:06,1437621
2025-09-10 18:12:07,1437958
2025-09-10 18:12:07,1438402
2025-09-10 18:12:07,1438871
2025-09-10 18:12:07,1439250
2025-09-10 18:12:07,1439090
2025-09-10 18:12:07,1438531
2025-09-10 18:12:07,1437354
2025-09-10 18:12:07,1435726
2025-09-10 18:12:07,1433750
2025-09-10 18:12:07,1431353
2025-09-10 18:12:07,1428634
2025-09-10 18:12:07,1425617
2025-09-10 18:12:07,1422765
2025-09-10 18:12:07,1419998
2025-09-10 18:12:07,1417454
2025-09-10 18:12:07,1415348
2025-09-10 18:12:07,1413460
2025-09-10 18:12:07,1411975
2025-09-10 18:12:07,1410793
2025-09-10 18:12:07,1409616
2025-09-10 18:12:07,1408924
2025-09-10 18:12:07,1408792
2025-09-10 18:12:07,1409082
2025-09-10 18:12:07,1409432
2025-09-10 18:12:07,1410008
2025-09-10 18:12:07,1410755
2025-09-10 18:12:07,1411431
2025-09-10 18:12:07,1411814
2025-09-10 18:12:07,1411854
2025-09-10 18:12:07,1411661
2025-09-10 18:12:07,1411018
2025-09-10 18:12:07,1410023
2025-09-10 18:12:07,1408951
2025-09-10 18:12:07,1408205
2025-09-10 18:12:07,1407942
2025-09-10 18:12:07,1407732
2025-09-10 18:12:07,1407383
2025-09-10 18:12:07,1407125
2025-09-10 18:12:07,1406873
2025-09-10 18:12:07,1406660
2025-09-10 18:12:07,1406527
2025-09-10 18:12:07,1406379
2025-09-10 18:12:07,1406274
2025-09-10 18:12:07,1406342
2025-09-10 18:12:07,1406289
2025-09-10 18:12:07,1406152
2025-09-10 18:12:07,1406029
2025-09-10 18:12:07,1405831
2025-09-10 18:12:07,1405664
2025-09-10 18:12:07,1405666
2025-09-10 18:12:07,1405569
2025-09-10 18:12:07,1405671
2025-09-10 18:12:07,1405932
2025-09-10 18:12:07,1406078
2025-09-10 18:12:07,1405928
2025-09-10 18:12:07,1405774
2025-09-10 18:12:07,1405859
2025-09-10 18:12:07,1406039
2025-09-10 18:12:07,1406165
2025-09-10 18:12:07,1406226
2025-09-10 18:12:07,1406208
2025-09-10 18:12:07,1406355
2025-09-10 18:12:07,1406460
2025-09-10 18:12:07,1406540
2025-09-10 18:12:07,1406777
2025-09-10 18:12:07,1406847
2025-09-10 18:12:07,1406866
2025-09-10 18:12:07,1406979
2025-09-10 18:12:07,1407179
2025-09-10 18:12:07,1407239
2025-09-10 18:12:07,1407388
2025-09-10 18:12:07,1407564
2025-09-10 18:12:07,1407834
2025-09-10 18:12:07,1407945
2025-09-10 18:12:07,1407995
2025-09-10 18:12:07,1408330
2025-09-10 18:12:07,1408597
2025-09-10 18:12:07,1408767
2025-09-10 18:12:07,1408839
2025-09-10 18:12:07,1408921
2025-09-10 18:12:07,1409060
2025-09-10 18:12:07,1409306
2025-09-10 18:12:07,1409482
2025-09-10 18:12:07,1409628
2025-09-10 18:12:07,1409643
2025-09-10 18:12:07,1409728
2025-09-10 18:12:07,1409699
2025-09-10 18:12:07,1409543
2025-09-10 18:12:07,1409490
2025-09-10 18:12:07,1409650
2025-09-10 18:12:07,1409821
2025-09-10 18:12:07,1409882
2025-09-10 18:12:07,1410101
2025-09-10 18:12:07,1410181
2025-09-10 18:12:07,1409945
2025-09-10 18:12:07,1409449
2025-09-10 18:12:07,1408833
2025-09-10 18:12:07,1408143
2025-09-10 18:12:07,1407406
2025-09-10 18:12:07,1406376
2025-09-10 18:12:08,1406106
2025-09-10 18:12:08,1405669
2025-09-10 18:12:08,1405203
2025-09-10 18:12:08,1404895
2025-09-10 18:12:08,1404670
2025-09-10 18:12:08,1404719
2025-09-10 18:12:08,1403689
2025-09-10 18:12:08,1403034
2025-09-10 18:12:08,1403274
2025-09-10 18:12:08,1403351
2025-09-10 18:12:08,1403102
2025-09-10 18:12:08,1404251
2025-09-10 18:12:08,1406160
2025-09-10 18:12:08,1407189
2025-09-10 18:12:08,1407924
2025-09-10 18:12:08,1409022
2025-09-10 18:12:08,1411485
2025-09-10 18:12:08,1414067
2025-09-10 18:12:08,1414691
2025-09-10 18:12:08,1414777
2025-09-10 18:12:08,1416277
2025-09-10 18:12:08,1418816
2025-09-10 18:12:08,1419893
2025-09-10 18:12:08,1421497
2025-09-10 18:12:08,1424395
2025-09-10 18:12:08,1426054
2025-09-10 18:12:08,1426891
2025-09-10 18:12:08,1427568
2025-09-10 18:12:08,1427602
2025-09-10 18:12:08,1428837
2025-09-10 18:12:08,1430751
2025-09-10 18:12:08,1430813
2025-09-10 18:12:08,1430109
2025-09-10 18:12:08,1430304
2025-09-10 18:12:08,1431727
2025-09-10 18:12:08,1434244
2025-09-10 18:12:08,1436323
2025-09-10 18:12:08,1437820
2025-09-10 18:12:08,1439215
2025-09-10 18:12:08,1440648
2025-09-10 18:12:08,1442081
2025-09-10 18:12:08,1443632
2025-09-10 18:12:08,1445306
2025-09-10 18:12:08,1447988
2025-09-10 18:12:08,1450561
2025-09-10 18:12:08,1453004
2025-09-10 18:12:08,1455925
2025-09-10 18:12:08,1459410
2025-09-10 18:12:08,1462580
2025-09-10 18:12:08,1465412
2025-09-10 18:12:08,1468190
2025-09-10 18:12:08,1470426
2025-09-10 18:12:08,1472237
2025-09-10 18:12:08,1473516
2025-09-10 18:12:08,1474547
2025-09-10 18:12:08,1475418
2025-09-10 18:12:08,1476015
2025-09-10 18:12:08,1476701
2025-09-10 18:12:08,1477324
2025-09-10 18:12:08,1477800
2025-09-10 18:12:08,1477871
2025-09-10 18:12:08,1477813
2025-09-10 18:12:08,1477745
2025-09-10 18:12:08,1477687
2025-09-10 18:12:08,1477654
2025-09-10 18:12:08,1477621
2025-09-10 18:12:08,1477378
2025-09-10 18:12:08,1476667
2025-09-10 18:12:08,1474798
2025-09-10 18:12:08,1471972
2025-09-10 18:12:08,1469338
2025-09-10 18:12:08,1467665
2025-09-10 18:12:08,1465609
2025-09-10 18:12:08,1464310
2025-09-10 18:12:08,1463147
2025-09-10 18:12:08,1462167
2025-09-10 18:12:08,1461537
2025-09-10 18:12:08,1461384
2025-09-10 18:12:08,1461495
2025-09-10 18:12:08,1461096
2025-09-10 18:12:08,1460186
2025-09-10 18:12:08,1458834
2025-09-10 18:12:08,1457183
2025-09-10 18:12:08,1455341
2025-09-10 18:12:08,1453521
2025-09-10 18:12:08,1451494
2025-09-10 18:12:08,1449504
2025-09-10 18:12:08,1447109
2025-09-10 18:12:08,1444993
2025-09-10 18:12:08,1443900
2025-09-10 18:12:08,1443550
2025-09-10 18:12:08,1443117
2025-09-10 18:12:08,1442746
2025-09-10 18:12:08,1442471
2025-09-10 18:12:08,1442023
2025-09-10 18:12:08,1441121
2025-09-10 18:12:08,1440225
2025-09-10 18:12:08,1439113
2025-09-10 18:12:08,1437650
2025-09-10 18:12:09,1436163
2025-09-10 18:12:09,1435649
2025-09-10 18:12:09,1435669
2025-09-10 18:12:09,1435366
2025-09-10 18:12:09,1435343
2025-09-10 18:12:09,1435892
2025-09-10 18:12:09,1436214
2025-09-10 18:12:09,1436723
2025-09-10 18:12:09,1437474
2025-09-10 18:12:09,1438533
2025-09-10 18:12:09,1439428
2025-09-10 18:12:09,1440323
2025-09-10 18:12:09,1441007
2025-09-10 18:12:09,1441519
2025-09-10 18:12:09,1442113
2025-09-10 18:12:09,1442947
2025-09-10 18:12:09,1443721
2025-09-10 18:12:09,1444738
2025-09-10 18:12:09,1445655
2025-09-10 18:12:09,1446492
2025-09-10 18:12:09,1447101
2025-09-10 18:12:09,1447515
2025-09-10 18:12:09,1447232
2025-09-10 18:12:09,1447006
2025-09-10 18:12:09,1447253
2025-09-10 18:12:09,1447198
2025-09-10 18:12:09,1447303
2025-09-10 18:12:09,1447572
2025-09-10 18:12:09,1447876
2025-09-10 18:12:09,1448220
2025-09-10 18:12:09,1448315
2025-09-10 18:12:09,1448301
2025-09-10 18:12:09,1448331
2025-09-10 18:12:09,1448255
2025-09-10 18:12:09,1447810
2025-09-10 18:12:09,1447384
2025-09-10 18:12:09,1447038
2025-09-10 18:12:09,1446952
2025-09-10 18:12:09,1446887
2025-09-10 18:12:09,1446799
2025-09-10 18:12:09,1446587
2025-09-10 18:12:09,1446225
2025-09-10 18:12:09,1445696
2025-09-10 18:12:09,1444520
2025-09-10 18:12:09,1443820
2025-09-10 18:12:09,1443794
2025-09-10 18:12:09,1443786
2025-09-10 18:12:09,1443756
2025-09-10 18:12:09,1443879
2025-09-10 18:12:09,1444211
2025-09-10 18:12:09,1444616
2025-09-10 18:12:09,1444989
2025-09-10 18:12:09,1445269
2025-09-10 18:12:09,1445372
2025-09-10 18:12:09,1445397
2025-09-10 18:12:09,1445468
2025-09-10 18:12:09,1445539
2025-09-10 18:12:09,1445693
2025-09-10 18:12:09,1445718
2025-09-10 18:12:09,1445895
2025-09-10 18:12:09,1445969
2025-09-10 18:12:09,1446179
2025-09-10 18:12:09,1446284
2025-09-10 18:12:09,1446476
2025-09-10 18:12:09,1446588
2025-09-10 18:12:09,1446774
2025-09-10 18:12:09,1447123
2025-09-10 18:12:09,1447321
2025-09-10 18:12:09,1447636
2025-09-10 18:12:09,1447791
2025-09-10 18:12:09,1447881
2025-09-10 18:12:09,1448085
2025-09-10 18:12:09,1448209
2025-09-10 18:12:09,1448327
2025-09-10 18:12:09,1448485
2025-09-10 18:12:09,1448526
2025-09-10 18:12:09,1448769
2025-09-10 18:12:09,1448888
2025-09-10 18:12:09,1449005
2025-09-10 18:12:09,1449121
2025-09-10 18:12:09,1449204
2025-09-10 18:12:09,1449328
2025-09-10 18:12:09,1449398
2025-09-10 18:12:09,1449384
2025-09-10 18:12:09,1449299
2025-09-10 18:12:09,1449019
2025-09-10 18:12:09,1448440
2025-09-10 18:12:09,1447894
2025-09-10 18:12:09,1447124
2025-09-10 18:12:09,1446288
2025-09-10 18:12:09,1445379
2025-09-10 18:12:09,1444611
2025-09-10 18:12:09,1443809
2025-09-10 18:12:09,1443039
2025-09-10 18:12:09,1442500
2025-09-10 18:12:09,1441895
2025-09-10 18:12:09,1441498
2025-09-10 18:12:09,1441172
2025-09-10 18:12:09,1440829
2025-09-10 18:12:09,1440715
2025-09-10 18:12:10,1440524
2025-09-10 18:12:10,1440558
2025-09-10 18:12:10,1440533
2025-09-10 18:12:10,1440554
2025-09-10 18:12:10,1440429
2025-09-10 18:12:10,1440461
2025-09-10 18:12:10,1440419
2025-09-10 18:12:10,1440373
2025-09-10 18:12:10,1440389
2025-09-10 18:12:10,1440437
2025-09-10 18:12:10,1440399
2025-09-10 18:12:10,1440429
2025-09-10 18:12:10,1440437
2025-09-10 18:12:10,1440496
2025-09-10 18:12:10,1440597
2025-09-10 18:12:10,1440699
2025-09-10 18:12:10,1440781
2025-09-10 18:12:10,1440913
2025-09-10 18:12:10,1441044
2025-09-10 18:12:10,1441113
2025-09-10 18:12:10,1441173
2025-09-10 18:12:10,1441160
2025-09-10 18:12:10,1441048
2025-09-10 18:12:10,1441050
2025-09-10 18:12:10,1440974
2025-09-10 18:12:10,1440831
2025-09-10 18:12:10,1440844
2025-09-10 18:12:10,1440802
2025-09-10 18:12:10,1440734
2025-09-10 18:12:10,1440796
2025-09-10 18:12:10,1440674
2025-09-10 18:12:10,1440697
2025-09-10 18:12:10,1440756
2025-09-10 18:12:10,1440804
2025-09-10 18:12:10,1440789
2025-09-10 18:12:10,1440833
2025-09-10 18:12:10,1440936
2025-09-10 18:12:10,1441002
2025-09-10 18:12:10,1441063
2025-09-10 18:12:10,1441071
2025-09-10 18:12:10,1441185
2025-09-10 18:12:10,1441214
2025-09-10 18:12:10,1441369
2025-09-10 18:12:10,1441332
2025-09-10 18:12:10,1441473
2025-09-10 18:12:10,1441596
2025-09-10 18:12:10,1441661
2025-09-10 18:12:10,1441762
2025-09-10 18:12:10,1441783
2025-09-10 18:12:10,1441969
2025-09-10 18:12:10,1442018
2025-09-10 18:12:10,1442129
2025-09-10 18:12:10,1442235
2025-09-10 18:12:10,1442316
2025-09-10 18:12:10,1442316
2025-09-10 18:12:10,1442429
2025-09-10 18:12:10,1442623
2025-09-10 18:12:10,1442666
2025-09-10 18:12:10,1442805
2025-09-10 18:12:10,1442965
2025-09-10 18:12:10,1442978
2025-09-10 18:12:10,1443122
2025-09-10 18:12:10,1443171
2025-09-10 18:12:10,1443287
2025-09-10 18:12:10,1443277
2025-09-10 18:12:10,1443371
2025-09-10 18:12:10,1443525
2025-09-10 18:12:10,1443544
2025-09-10 18:12:10,1443647
2025-09-10 18:12:10,1443733
2025-09-10 18:12:10,1443843
2025-09-10 18:12:10,1443874
2025-09-10 18:12:10,1444042
2025-09-10 18:12:10,1444099
2025-09-10 18:12:10,1444213
2025-09-10 18:12:10,1444302
2025-09-10 18:12:10,1444323
2025-09-10 18:12:10,1444483
2025-09-10 18:12:10,1444412
2025-09-10 18:12:10,1444490
2025-09-10 18:12:10,1444431
2025-09-10 18:12:10,1444249
2025-09-10 18:12:10,1443800
2025-09-10 18:12:10,1443294
2025-09-10 18:12:10,1442569
2025-09-10 18:12:10,1441750
2025-09-10 18:12:10,1440923
2025-09-10 18:12:10,1440204
2025-09-10 18:12:10,1439446
2025-09-10 18:12:10,1438910
2025-09-10 18:12:10,1438401
2025-09-10 18:12:10,1438104
2025-09-10 18:12:10,1437798
2025-09-10 18:12:10,1437594
2025-09-10 18:12:10,1437551
2025-09-10 18:12:10,1437404
2025-09-10 18:12:10,1437339
2025-09-10 18:12:10,1437273
2025-09-10 18:12:10,1437281
2025-09-10 18:12:10,1437235
2025-09-10 18:12:10,1437235
2025-09-10 18:12:11,1437296
2025-09-10 18:12:11,1437214
2025-09-10 18:12:11,1437215
2025-09-10 18:12:11,1437200
2025-09-10 18:12:11,1437211
2025-09-10 18:12:11,1437244
2025-09-10 18:12:11,1437272
2025-09-10 18:12:11,1437335
2025-09-10 18:12:11,1437407
2025-09-10 18:12:11,1437553
2025-09-10 18:12:11,1437591
2025-09-10 18:12:11,1437730
2025-09-10 18:12:11,1437822
2025-09-10 18:12:11,1437942
2025-09-10 18:12:11,1437901
2025-09-10 18:12:11,1437910
2025-09-10 18:12:11,1437950
2025-09-10 18:12:11,1437924
2025-09-10 18:12:11,1437913
2025-09-10 18:12:11,1437886
2025-09-10 18:12:11,1437782
2025-09-10 18:12:11,1437725
2025-09-10 18:12:11,1437623
2025-09-10 18:12:11,1437446
2025-09-10 18:12:11,1437378
2025-09-10 18:12:11,1437304
2025-09-10 18:12:11,1437008
2025-09-10 18:12:11,1436863
2025-09-10 18:12:11,1436680
2025-09-10 18:12:11,1436401
2025-09-10 18:12:11,1435917
2025-09-10 18:12:11,1435042
2025-09-10 18:12:11,1434043
2025-09-10 18:12:11,1433063
2025-09-10 18:12:11,1432880
2025-09-10 18:12:11,1433374
2025-09-10 18:12:11,1433409
2025-09-10 18:12:11,1433082
2025-09-10 18:12:11,1433355
2025-09-10 18:12:11,1433377
2025-09-10 18:12:11,1433469
2025-09-10 18:12:11,1433549
2025-09-10 18:12:11,1433872
2025-09-10 18:12:11,1434037
2025-09-10 18:12:11,1434216
2025-09-10 18:12:11,1434440
2025-09-10 18:12:11,1434579
2025-09-10 18:12:11,1434795
2025-09-10 18:12:11,1434991
2025-09-10 18:12:11,1435149
2025-09-10 18:12:11,1435367
2025-09-10 18:12:11,1435466
2025-09-10 18:12:11,1435689
2025-09-10 18:12:11,1435859
2025-09-10 18:12:11,1436047
2025-09-10 18:12:11,1436198
2025-09-10 18:12:11,1436286
2025-09-10 18:12:11,1436418
2025-09-10 18:12:11,1436577
2025-09-10 18:12:11,1436735
2025-09-10 18:12:11,1436844
2025-09-10 18:12:11,1436987
2025-09-10 18:12:11,1437176
2025-09-10 18:12:11,1437316
2025-09-10 18:12:11,1437523
2025-09-10 18:12:11,1437692
2025-09-10 18:12:11,1437810
2025-09-10 18:12:11,1438002
2025-09-10 18:12:11,1438097
2025-09-10 18:12:11,1438247
2025-09-10 18:12:11,1438404
2025-09-10 18:12:11,1438506
2025-09-10 18:12:11,1438490
2025-09-10 18:12:11,1438393
2025-09-10 18:12:11,1438025
2025-09-10 18:12:11,1437703
2025-09-10 18:12:11,1437339
2025-09-10 18:12:11,1437018
2025-09-10 18:12:11,1436342
2025-09-10 18:12:11,1435606
2025-09-10 18:12:11,1434855
2025-09-10 18:12:11,1434318
2025-09-10 18:12:11,1433806
2025-09-10 18:12:11,1433427
2025-09-10 18:12:11,1433181
2025-09-10 18:12:11,1432994
2025-09-10 18:12:11,1432809
2025-09-10 18:12:11,1432875
2025-09-10 18:12:11,1432790
2025-09-10 18:12:11,1432825
2025-09-10 18:12:11,1432859
2025-09-10 18:12:11,1432945
2025-09-10 18:12:11,1432962
2025-09-10 18:12:11,1433073
2025-09-10 18:12:11,1433080
2025-09-10 18:12:11,1433211
2025-09-10 18:12:11,1433251
2025-09-10 18:12:11,1433341
2025-09-10 18:12:11,1433326
2025-09-10 18:12:11,1433534
2025-09-10 18:12:12,1433610
2025-09-10 18:12:12,1433778
2025-09-10 18:12:12,1434018
2025-09-10 18:12:12,1434064
2025-09-10 18:12:12,1434236
2025-09-10 18:12:12,1434275
2025-09-10 18:12:12,1434335
2025-09-10 18:12:12,1434394
2025-09-10 18:12:12,1434375
2025-09-10 18:12:12,1434455
2025-09-10 18:12:12,1434484
2025-09-10 18:12:12,1434472
2025-09-10 18:12:12,1434483
2025-09-10 18:12:12,1434539
2025-09-10 18:12:12,1434455
2025-09-10 18:12:12,1434441
2025-09-10 18:12:12,1434480
2025-09-10 18:12:12,1434450
2025-09-10 18:12:12,1434414
2025-09-10 18:12:12,1434524
2025-09-10 18:12:12,1434609
2025-09-10 18:12:12,1434710
2025-09-10 18:12:12,1434756
2025-09-10 18:12:12,1434881
2025-09-10 18:12:12,1434975
2025-09-10 18:12:12,1434948
2025-09-10 18:12:12,1435024
2025-09-10 18:12:12,1435100
2025-09-10 18:12:12,1435231
2025-09-10 18:12:12,1435387
2025-09-10 18:12:12,1435407
2025-09-10 18:12:12,1435529
2025-09-10 18:12:12,1435658
2025-09-10 18:12:12,1435745
2025-09-10 18:12:12,1435841
2025-09-10 18:12:12,1435958
2025-09-10 18:12:12,1436107
2025-09-10 18:12:12,1436191
2025-09-10 18:12:12,1436402
2025-09-10 18:12:12,1436501
2025-09-10 18:12:12,1436579
2025-09-10 18:12:12,1436665
2025-09-10 18:12:12,1436803
2025-09-10 18:12:12,1436948
2025-09-10 18:12:12,1437036
2025-09-10 18:12:12,1437158
2025-09-10 18:12:12,1437130
2025-09-10 18:12:12,1437289
2025-09-10 18:12:12,1437408
2025-09-10 18:12:12,1437524
2025-09-10 18:12:12,1437683
2025-09-10 18:12:12,1437857
2025-09-10 18:12:12,1437916
2025-09-10 18:12:12,1437967
2025-09-10 18:12:12,1438034
2025-09-10 18:12:12,1438163
2025-09-10 18:12:12,1438145
2025-09-10 18:12:12,1438048
2025-09-10 18:12:12,1437715
2025-09-10 18:12:12,1437362
2025-09-10 18:12:12,1436957
2025-09-10 18:12:12,1436404
2025-09-10 18:12:12,1435675
2025-09-10 18:12:12,1434999
2025-09-10 18:12:12,1434300
2025-09-10 18:12:12,1433681
2025-09-10 18:12:12,1433232
2025-09-10 18:12:12,1432864
2025-09-10 18:12:12,1432577
2025-09-10 18:12:12,1432454
2025-09-10 18:12:12,1432309
2025-09-10 18:12:12,1432319
2025-09-10 18:12:12,1432224
2025-09-10 18:12:12,1432193
2025-09-10 18:12:12,1432233
2025-09-10 18:12:12,1432261
2025-09-10 18:12:12,1432322
2025-09-10 18:12:12,1432254
2025-09-10 18:12:12,1432219
2025-09-10 18:12:12,1432177
2025-09-10 18:12:12,1432308
2025-09-10 18:12:12,1432320
2025-09-10 18:12:12,1432330
2025-09-10 18:12:12,1432374
2025-09-10 18:12:12,1432468
2025-09-10 18:12:12,1432577
2025-09-10 18:12:12,1432706
2025-09-10 18:12:12,1432744
2025-09-10 18:12:12,1432965
2025-09-10 18:12:12,1433085
2025-09-10 18:12:12,1433245
2025-09-10 18:12:12,1433308
2025-09-10 18:12:12,1433399
2025-09-10 18:12:12,1433444
2025-09-10 18:12:12,1433482
2025-09-10 18:12:12,1433492
2025-09-10 18:12:12,1433373
2025-09-10 18:12:12,1433444
2025-09-10 18:12:12,1433416
2025-09-10 18:12:12,1433418
2025-09-10 18:12:12,1433345
2025-09-10 18:12:13,1433411
2025-09-10 18:12:13,1433461
2025-09-10 18:12:13,1433537
2025-09-10 18:12:13,1433624
2025-09-10 18:12:13,1433634
2025-09-10 18:12:13,1433772
2025-09-10 18:12:13,1433794
2025-09-10 18:12:13,1433924
2025-09-10 18:12:13,1434039
2025-09-10 18:12:13,1433964
2025-09-10 18:12:13,1434059
2025-09-10 18:12:13,1434154
2025-09-10 18:12:13,1434307
2025-09-10 18:12:13,1434370
2025-09-10 18:12:13,1434495
2025-09-10 18:12:13,1434657
2025-09-10 18:12:13,1434887
2025-09-10 18:12:13,1434923
2025-09-10 18:12:13,1435127
2025-09-10 18:12:13,1435202
2025-09-10 18:12:13,1435269
2025-09-10 18:12:13,1435450
2025-09-10 18:12:13,1435547
2025-09-10 18:12:13,1435735
2025-09-10 18:12:13,1435827
2025-09-10 18:12:13,1436091
2025-09-10 18:12:13,1436181
2025-09-10 18:12:13,1436321
2025-09-10 18:12:13,1436483
2025-09-10 18:12:13,1436572
2025-09-10 18:12:13,1436687
2025-09-10 18:12:13,1436818
2025-09-10 18:12:13,1436820
2025-09-10 18:12:13,1436909
2025-09-10 18:12:13,1436995
2025-09-10 18:12:13,1437184
2025-09-10 18:12:13,1437314
2025-09-10 18:12:13,1437560
2025-09-10 18:12:13,1437643
2025-09-10 18:12:13,1437747
2025-09-10 18:12:13,1437784
2025-09-10 18:12:13,1437922
2025-09-10 18:12:13,1438071
2025-09-10 18:12:13,1437977
2025-09-10 18:12:13,1437776
2025-09-10 18:12:13,1437495
2025-09-10 18:12:13,1437033
2025-09-10 18:12:13,1436490
2025-09-10 18:12:13,1435766
2025-09-10 18:12:13,1434965
2025-09-10 18:12:13,1434333
2025-09-10 18:12:13,1433780
2025-09-10 18:12:13,1433309
2025-09-10 18:12:13,1432998
2025-09-10 18:12:13,1432762
2025-09-10 18:12:13,1432607
2025-09-10 18:12:13,1432377
2025-09-10 18:12:13,1432208
2025-09-10 18:12:13,1431965
2025-09-10 18:12:13,1431842
2025-09-10 18:12:13,1431632
2025-09-10 18:12:13,1431674
2025-09-10 18:12:13,1431572
2025-09-10 18:12:13,1431632
2025-09-10 18:12:13,1431601
2025-09-10 18:12:13,1431672
2025-09-10 18:12:13,1431767
2025-09-10 18:12:13,1431788
2025-09-10 18:12:13,1431880
2025-09-10 18:12:13,1431860
2025-09-10 18:12:13,1431994
2025-09-10 18:12:13,1432097
2025-09-10 18:12:13,1432117
2025-09-10 18:12:13,1432245
2025-09-10 18:12:13,1432240
2025-09-10 18:12:13,1432456
2025-09-10 18:12:13,1432499
2025-09-10 18:12:13,1432578
2025-09-10 18:12:13,1432731
2025-09-10 18:12:13,1432860
2025-09-10 18:12:13,1432970
2025-09-10 18:12:13,1432990
2025-09-10 18:12:13,1432969
2025-09-10 18:12:13,1433070
2025-09-10 18:12:13,1433076
2025-09-10 18:12:13,1433004
2025-09-10 18:12:13,1432968
2025-09-10 18:12:13,1432896
2025-09-10 18:12:13,1432936
2025-09-10 18:12:13,1432913
2025-09-10 18:12:13,1432998
2025-09-10 18:12:13,1433101
2025-09-10 18:12:13,1433210
2025-09-10 18:12:13,1433389
2025-09-10 18:12:13,1433532
2025-09-10 18:12:13,1433670
2025-09-10 18:12:13,1433738
2025-09-10 18:12:13,1433788
2025-09-10 18:12:13,1433704
2025-09-10 18:12:13,1433812
2025-09-10 18:12:14,1433797
2025-09-10 18:12:14,1433869
2025-09-10 18:12:14,1434017
2025-09-10 18:12:14,1434060
2025-09-10 18:12:14,1434162
2025-09-10 18:12:14,1434324
2025-09-10 18:12:14,1434462
2025-09-10 18:12:14,1434575
2025-09-10 18:12:14,1434726
2025-09-10 18:12:14,1434733
2025-09-10 18:12:14,1434826
2025-09-10 18:12:14,1434884
2025-09-10 18:12:14,1435032
2025-09-10 18:12:14,1435076
2025-09-10 18:12:14,1435142
2025-09-10 18:12:14,1435222
2025-09-10 18:12:14,1435306
2025-09-10 18:12:14,1435466
2025-09-10 18:12:14,1435464
2025-09-10 18:12:14,1435490
2025-09-10 18:12:14,1435586
2025-09-10 18:12:14,1435731
2025-09-10 18:12:14,1435767
2025-09-10 18:12:14,1435800
2025-09-10 18:12:14,1435867
2025-09-10 18:12:14,1435735
2025-09-10 18:12:14,1435482
2025-09-10 18:12:14,1435150
2025-09-10 18:12:14,1434651
2025-09-10 18:12:14,1433904
2025-09-10 18:12:14,1433096
2025-09-10 18:12:14,1432305
2025-09-10 18:12:14,1431648
2025-09-10 18:12:14,1431271
2025-09-10 18:12:14,1430806
2025-09-10 18:12:14,1430471
2025-09-10 18:12:14,1430238
2025-09-10 18:12:14,1430144
2025-09-10 18:12:14,1429908
2025-09-10 18:12:14,1429790
2025-09-10 18:12:14,1429673
2025-09-10 18:12:14,1429665
2025-09-10 18:12:14,1429533
2025-09-10 18:12:14,1429567
2025-09-10 18:12:14,1429539
2025-09-10 18:12:14,1429584
2025-09-10 18:12:14,1429524
2025-09-10 18:12:14,1429598
2025-09-10 18:12:14,1429663
2025-09-10 18:12:14,1429651
2025-09-10 18:12:14,1429718
2025-09-10 18:12:14,1429800
2025-09-10 18:12:14,1429784
2025-09-10 18:12:14,1429914
2025-09-10 18:12:14,1430012
2025-09-10 18:12:14,1430115
2025-09-10 18:12:14,1430264
2025-09-10 18:12:14,1430403
2025-09-10 18:12:14,1430347
2025-09-10 18:12:14,1430474
2025-09-10 18:12:14,1430473
2025-09-10 18:12:14,1430457
2025-09-10 18:12:14,1430448
2025-09-10 18:12:14,1430491
2025-09-10 18:12:14,1430360
2025-09-10 18:12:14,1430344
2025-09-10 18:12:14,1430265
2025-09-10 18:12:14,1430217
2025-09-10 18:12:14,1430169
2025-09-10 18:12:14,1430159
2025-09-10 18:12:14,1430081
2025-09-10 18:12:14,1430062
2025-09-10 18:12:14,1430075
2025-09-10 18:12:14,1430098
2025-09-10 18:12:14,1430084
2025-09-10 18:12:14,1430246
2025-09-10 18:12:14,1430175
2025-09-10 18:12:14,1430255
2025-09-10 18:12:14,1430211
2025-09-10 18:12:14,1430380
2025-09-10 18:12:14,1430473
2025-09-10 18:12:14,1430511
2025-09-10 18:12:14,1430646
2025-09-10 18:12:14,1430656
2025-09-10 18:12:14,1430805
2025-09-10 18:12:14,1430843
2025-09-10 18:12:14,1430892
2025-09-10 18:12:14,1431011
2025-09-10 18:12:14,1431116
2025-09-10 18:12:14,1431182
2025-09-10 18:12:14,1431275
2025-09-10 18:12:14,1431369
2025-09-10 18:12:14,1431537
2025-09-10 18:12:14,1431633
2025-09-10 18:12:14,1431722
2025-09-10 18:12:14,1431771
2025-09-10 18:12:14,1431841
2025-09-10 18:12:14,1432038
2025-09-10 18:12:14,1432035
2025-09-10 18:12:14,1432071
2025-09-10 18:12:15,1432030
2025-09-10 18:12:15,1431958
2025-09-10 18:12:15,1431602
2025-09-10 18:12:15,1431021
2025-09-10 18:12:15,1430316
2025-09-10 18:12:15,1429720
2025-09-10 18:12:15,1428987
2025-09-10 18:12:15,1428404
2025-09-10 18:12:15,1427949
2025-09-10 18:12:15,1427567
2025-09-10 18:12:15,1427322
2025-09-10 18:12:15,1427034
2025-09-10 18:12:15,1426927
2025-09-10 18:12:15,1426811
2025-09-10 18:12:15,1426682
2025-09-10 18:12:15,1426665
2025-09-10 18:12:15,1426624
2025-09-10 18:12:15,1426545
2025-09-10 18:12:15,1426610
2025-09-10 18:12:15,1426628
2025-09-10 18:12:15,1426614
2025-09-10 18:12:15,1426635
2025-09-10 18:12:15,1426634
2025-09-10 18:12:15,1426666
2025-09-10 18:12:15,1426676
2025-09-10 18:12:15,1426755
2025-09-10 18:12:15,1426821
2025-09-10 18:12:15,1426906
2025-09-10 18:12:15,1427021
2025-09-10 18:12:15,1427085
2025-09-10 18:12:15,1427239
2025-09-10 18:12:15,1427278
2025-09-10 18:12:15,1427374
2025-09-10 18:12:15,1427410
2025-09-10 18:12:15,1427432
2025-09-10 18:12:15,1427472
2025-09-10 18:12:15,1427492
2025-09-10 18:12:15,1427431
2025-09-10 18:12:15,1427464
2025-09-10 18:12:15,1427295
2025-09-10 18:12:15,1427204
2025-09-10 18:12:15,1427038
2025-09-10 18:12:15,1426989
2025-09-10 18:12:15,1426905
2025-09-10 18:12:15,1426861
2025-09-10 18:12:15,1426832
2025-09-10 18:12:15,1426738
2025-09-10 18:12:15,1426680
2025-09-10 18:12:15,1426702
2025-09-10 18:12:15,1426731
2025-09-10 18:12:11,1426761
2025-09-10 18:12:15,1426732
2025-09-10 18:12:15,1426866
2025-09-10 18:12:15,1426806
2025-09-10 18:12:15,1426932
2025-09-10 18:12:15,1426973
2025-09-10 18:12:15,1427072
2025-09-10 18:12:15,1427094
2025-09-10 18:12:15,1427127
2025-09-10 18:12:15,1427239
2025-09-10 18:12:15,1427197
2025-09-10 18:12:15,1427254
2025-09-10 18:12:15,1427356
2025-09-10 18:12:15,1427263
2025-09-10 18:12:15,1427359
2025-09-10 18:12:15,1427287
2025-09-10 18:12:15,1427038
2025-09-10 18:12:15,1426661
2025-09-10 18:12:15,1425930
2025-09-10 18:12:15,1425102
2025-09-10 18:12:15,1424227
2025-09-10 18:12:15,1423509
2025-09-10 18:12:15,1422786
2025-09-10 18:12:15,1422119
2025-09-10 18:12:15,1421596
2025-09-10 18:12:15,1421143
2025-09-10 18:12:15,1420845
2025-09-10 18:12:15,1420541
2025-09-10 18:12:15,1420472
2025-09-10 18:12:15,1420260
2025-09-10 18:12:15,1420260
2025-09-10 18:12:15,1420114
2025-09-10 18:12:15,1419885
2025-09-10 18:12:15,1419888
2025-09-10 18:12:15,1419822
2025-09-10 18:12:15,1419753
2025-09-10 18:12:15,1419805
2025-09-10 18:12:15,1419720
2025-09-10 18:12:15,1419784
2025-09-10 18:12:15,1419745
2025-09-10 18:12:15,1419627
2025-09-10 18:12:15,1419591
2025-09-10 18:12:15,1419624
2025-09-10 18:12:15,1419662
2025-09-10 18:12:15,1419705
2025-09-10 18:12:15,1419709
2025-09-10 18:12:15,1419715
2025-09-10 18:12:15,1419820
2025-09-10 18:12:15,1419764
2025-09-10 18:12:15,1419801
2025-09-10 18:12:15,1419842
2025-09-10 18:12:16,1419756
2025-09-10 18:12:16,1419747
2025-09-10 18:12:16,1419693
2025-09-10 18:12:16,1419636
2025-09-10 18:12:16,1419558
2025-09-10 18:12:16,1419394
2025-09-10 18:12:16,1419315
2025-09-10 18:12:16,1419226
2025-09-10 18:12:16,1419158
2025-09-10 18:12:16,1419210
2025-09-10 18:12:16,1419119
2025-09-10 18:12:16,1419192
2025-09-10 18:12:16,1419097
2025-09-10 18:12:16,1419161
2025-09-10 18:12:16,1419177
2025-09-10 18:12:16,1419222
2025-09-10 18:12:16,1419252
2025-09-10 18:12:16,1419323
2025-09-10 18:12:16,1419290
2025-09-10 18:12:16,1419304
2025-09-10 18:12:16,1419428
2025-09-10 18:12:16,1419442
2025-09-10 18:12:16,1419505
2025-09-10 18:12:16,1419612
2025-09-10 18:12:16,1419664
2025-09-10 18:12:16,1419754
2025-09-10 18:12:16,1419798
2025-09-10 18:12:16,1419869
2025-09-10 18:12:16,1419959
2025-09-10 18:12:16,1419972
2025-09-10 18:12:16,1420118
2025-09-10 18:12:16,1420044
2025-09-10 18:12:16,1419834
2025-09-10 18:12:16,1419384
2025-09-10 18:12:16,1418726
2025-09-10 18:12:16,1417960
2025-09-10 18:12:16,1417187
2025-09-10 18:12:16,1416529
2025-09-10 18:12:16,1415930
2025-09-10 18:12:16,1415535
2025-09-10 18:12:16,1415179
2025-09-10 18:12:16,1414919
2025-09-10 18:12:16,1414656
2025-09-10 18:12:16,1414491
2025-09-10 18:12:16,1414292
2025-09-10 18:12:16,1414276
2025-09-10 18:12:16,1414079
2025-09-10 18:12:16,1413991
2025-09-10 18:12:16,1413898
2025-09-10 18:12:16,1413809
2025-09-10 18:12:16,1413807
2025-09-10 18:12:16,1413789
2025-09-10 18:12:16,1413688
2025-09-10 18:12:16,1413652
2025-09-10 18:12:16,1413580
2025-09-10 18:12:16,1413524
2025-09-10 18:12:16,1413619
2025-09-10 18:12:16,1413569
2025-09-10 18:12:16,1413709
2025-09-10 18:12:16,1413662
2025-09-10 18:12:16,1413760
2025-09-10 18:12:16,1413885
2025-09-10 18:12:16,1413915
2025-09-10 18:12:16,1413931
2025-09-10 18:12:16,1414063
2025-09-10 18:12:16,1414092
2025-09-10 18:12:16,1414090
2025-09-10 18:12:16,1414132
2025-09-10 18:12:16,1414160
2025-09-10 18:12:16,1414138
2025-09-10 18:12:16,1414141
2025-09-10 18:12:16,1414070
2025-09-10 18:12:16,1414059
2025-09-10 18:12:16,1413972
2025-09-10 18:12:16,1413951
2025-09-10 18:12:16,1413984
2025-09-10 18:12:16,1414019
2025-09-10 18:12:16,1414006
2025-09-10 18:12:16,1414052
2025-09-10 18:12:16,1414104
2025-09-10 18:12:16,1414131
2025-09-10 18:12:16,1414245
2025-09-10 18:12:16,1414329
2025-09-10 18:12:16,1414414
2025-09-10 18:12:16,1414466
2025-09-10 18:12:16,1414509
2025-09-10 18:12:16,1414606
2025-09-10 18:12:16,1414728
2025-09-10 18:12:16,1414843
2025-09-10 18:12:16,1414899
2025-09-10 18:12:16,1415015
2025-09-10 18:12:16,1415091
2025-09-10 18:12:16,1415189
2025-09-10 18:12:16,1415248
2025-09-10 18:12:16,1415365
2025-09-10 18:12:16,1415496
2025-09-10 18:12:16,1415542
2025-09-10 18:12:16,1415644
2025-09-10 18:12:16,1415645
2025-09-10 18:12:16,1415800
2025-09-10 18:12:17,1415926
2025-09-10 18:12:17,1416009
2025-09-10 18:12:17,1416100
2025-09-10 18:12:17,1416257
2025-09-10 18:12:17,1416303
2025-09-10 18:12:17,1416407
2025-09-10 18:12:17,1416455
2025-09-10 18:12:17,1416589
2025-09-10 18:12:17,1416719
2025-09-10 18:12:17,1416839
2025-09-10 18:12:17,1416836
2025-09-10 18:12:17,1416704
2025-09-10 18:12:17,1416417
2025-09-10 18:12:17,1415713
2025-09-10 18:12:17,1414925
2025-09-10 18:12:17,1414071
2025-09-10 18:12:17,1413265
2025-09-10 18:12:17,1412650
2025-09-10 18:12:17,1412046
2025-09-10 18:12:17,1411727
2025-09-10 18:12:17,1411429
2025-09-10 18:12:17,1411105
2025-09-10 18:12:17,1410944
2025-09-10 18:12:17,1410733
2025-09-10 18:12:17,1410656
2025-09-10 18:12:17,1410643
2025-09-10 18:12:17,1410448
2025-09-10 18:12:17,1410415
2025-09-10 18:12:17,1410330
2025-09-10 18:12:17,1410323
2025-09-10 18:12:17,1410281
2025-09-10 18:12:17,1410254
2025-09-10 18:12:17,1410187
2025-09-10 18:12:17,1410230
2025-09-10 18:12:17,1410152
2025-09-10 18:12:17,1410121
2025-09-10 18:12:17,1410142
2025-09-10 18:12:17,1410169
2025-09-10 18:12:17,1410254
2025-09-10 18:12:17,1410323
2025-09-10 18:12:17,1410306
2025-09-10 18:12:17,1410457
2025-09-10 18:12:17,1410517
2025-09-10 18:12:17,1410648
2025-09-10 18:12:17,1410646
2025-09-10 18:12:17,1410705
2025-09-10 18:12:17,1410766
2025-09-10 18:12:17,1410760
2025-09-10 18:12:17,1410858
2025-09-10 18:12:17,1410929
2025-09-10 18:12:17,1410743
2025-09-10 18:12:17,1410739
2025-09-10 18:12:17,1410721
2025-09-10 18:12:17,1410725
2025-09-10 18:12:17,1410765
2025-09-10 18:12:17,1410696
2025-09-10 18:12:17,1410775
2025-09-10 18:12:17,1410734
2025-09-10 18:12:17,1410825
2025-09-10 18:12:17,1410870
2025-09-10 18:12:17,1410856
2025-09-10 18:12:17,1410960
2025-09-10 18:12:17,1411052
2025-09-10 18:12:17,1411059
2025-09-10 18:12:17,1411177
2025-09-10 18:12:17,1411195
2025-09-10 18:12:17,1411253
2025-09-10 18:12:17,1411446
2025-09-10 18:12:17,1411520
2025-09-10 18:12:17,1411641
2025-09-10 18:12:17,1411691
2025-09-10 18:12:17,1411734
2025-09-10 18:12:17,1411900
2025-09-10 18:12:17,1412005
2025-09-10 18:12:17,1412061
2025-09-10 18:12:17,1412180
2025-09-10 18:12:17,1412316
2025-09-10 18:12:17,1412404
2025-09-10 18:12:17,1412533
2025-09-10 18:12:17,1412627
2025-09-10 18:12:17,1412694
2025-09-10 18:12:17,1412823
2025-09-10 18:12:17,1412927
2025-09-10 18:12:17,1413064
2025-09-10 18:12:17,1413156
2025-09-10 18:12:17,1413185
2025-09-10 18:12:17,1413333
2025-09-10 18:12:17,1413472
2025-09-10 18:12:17,1413539
2025-09-10 18:12:17,1413690
2025-09-10 18:12:17,1413758
2025-09-10 18:12:17,1413931
2025-09-10 18:12:17,1414051
2025-09-10 18:12:17,1414115
2025-09-10 18:12:17,1414231
2025-09-10 18:12:17,1414369
2025-09-10 18:12:17,1414426
2025-09-10 18:12:17,1414561
2025-09-10 18:12:17,1414552
2025-09-10 18:12:17,1414748
2025-09-10 18:12:18,1414793
2025-09-10 18:12:18,1414897
2025-09-10 18:12:18,1415010
2025-09-10 18:12:18,1415189
2025-09-10 18:12:18,1415167
2025-09-10 18:12:18,1415298
2025-09-10 18:12:18,1415402
2025-09-10 18:12:18,1415447
2025-09-10 18:12:18,1415474
2025-09-10 18:12:18,1415650
2025-09-10 18:12:18,1415779
2025-09-10 18:12:18,1415875
2025-09-10 18:12:18,1415807
2025-09-10 18:12:18,1416104
2025-09-10 18:12:18,1416067
2025-09-10 18:12:18,1416174
2025-09-10 18:12:18,1416219
2025-09-10 18:12:18,1416305
2025-09-10 18:12:18,1416461
2025-09-10 18:12:18,1416566
2025-09-10 18:12:18,1416681
2025-09-10 18:12:18,1416722
2025-09-10 18:12:18,1416742
2025-09-10 18:12:18,1416534
2025-09-10 18:12:18,1416047
2025-09-10 18:12:18,1415267
2025-09-10 18:12:18,1414262
2025-09-10 18:12:18,1413225
2025-09-10 18:12:18,1412407
2025-09-10 18:12:18,1411836
2025-09-10 18:12:18,1411308
2025-09-10 18:12:18,1410896
2025-09-10 18:12:18,1410610
2025-09-10 18:12:18,1410396
2025-09-10 18:12:18,1410185
2025-09-10 18:12:18,1410110
2025-09-10 18:12:18,1410024
2025-09-10 18:12:18,1409917
2025-09-10 18:12:18,1409896
2025-09-10 18:12:18,1409942
2025-09-10 18:12:18,1409964
2025-09-10 18:12:18,1409844
2025-09-10 18:12:18,1409866
2025-09-10 18:12:18,1409864
2025-09-10 18:12:18,1409848
2025-09-10 18:12:18,1409835
2025-09-10 18:12:18,1409762
2025-09-10 18:12:18,1409737
2025-09-10 18:12:18,1409824
2025-09-10 18:12:18,1409816
2025-09-10 18:12:18,1409898
2025-09-10 18:12:18,1409938
2025-09-10 18:12:18,1409995
2025-09-10 18:12:18,1410042
2025-09-10 18:12:18,1410088
2025-09-10 18:12:18,1410107
2025-09-10 18:12:18,1410226
2025-09-10 18:12:18,1410177
2025-09-10 18:12:18,1410302
2025-09-10 18:12:18,1410268
2025-09-10 18:12:18,1410246
2025-09-10 18:12:18,1410246
2025-09-10 18:12:18,1410120
2025-09-10 18:12:18,1410132
2025-09-10 18:12:18,1410140
2025-09-10 18:12:18,1410067
2025-09-10 18:12:18,1410018
2025-09-10 18:12:18,1410009
2025-09-10 18:12:18,1410035
2025-09-10 18:12:18,1410109
2025-09-10 18:12:18,1410101
2025-09-10 18:12:18,1410180
2025-09-10 18:12:18,1410164
2025-09-10 18:12:18,1410245
2025-09-10 18:12:18,1410321
2025-09-10 18:12:18,1410419
2025-09-10 18:12:18,1410533
2025-09-10 18:12:18,1410555
2025-09-10 18:12:18,1410612
2025-09-10 18:12:18,1410714
2025-09-10 18:12:18,1410834
2025-09-10 18:12:18,1410901
2025-09-10 18:12:18,1411108
2025-09-10 18:12:18,1411128
2025-09-10 18:12:18,1411217
2025-09-10 18:12:18,1411312
2025-09-10 18:12:18,1411403
2025-09-10 18:12:18,1411519
2025-09-10 18:12:18,1411633
2025-09-10 18:12:18,1411766
2025-09-10 18:12:18,1411858
2025-09-10 18:12:18,1411985
2025-09-10 18:12:18,1412061
2025-09-10 18:12:18,1412281
2025-09-10 18:12:18,1412300
2025-09-10 18:12:18,1412392
2025-09-10 18:12:18,1412550
2025-09-10 18:12:18,1412581
2025-09-10 18:12:18,1412743
2025-09-10 18:12:18,1412749
2025-09-10 18:12:19,1412865
2025-09-10 18:12:19,1413035
2025-09-10 18:12:19,1413120
2025-09-10 18:12:19,1413141
2025-09-10 18:12:19,1413305
2025-09-10 18:12:19,1413387
2025-09-10 18:12:19,1413520
2025-09-10 18:12:19,1413569
2025-09-10 18:12:19,1413654
2025-09-10 18:12:19,1413767
2025-09-10 18:12:19,1413863
2025-09-10 18:12:19,1413868
2025-09-10 18:12:19,1413915
2025-09-10 18:12:19,1413779
2025-09-10 18:12:19,1413540
2025-09-10 18:12:19,1412894
2025-09-10 18:12:19,1412181
2025-09-10 18:12:19,1411295
2025-09-10 18:12:19,1410484
2025-09-10 18:12:19,1409812
2025-09-10 18:12:19,1409262
2025-09-10 18:12:19,1408922
2025-09-10 18:12:19,1408606
2025-09-10 18:12:19,1408370
2025-09-10 18:12:19,1408190
2025-09-10 18:12:19,1408051
2025-09-10 18:12:19,1407892
2025-09-10 18:12:19,1407926
2025-09-10 18:12:19,1407793
2025-09-10 18:12:19,1407721
2025-09-10 18:12:19,1407847
2025-09-10 18:12:19,1407860
2025-09-10 18:12:19,1407815
2025-09-10 18:12:19,1407908
2025-09-10 18:12:19,1407895
2025-09-10 18:12:19,1407895
2025-09-10 18:12:19,1407921
2025-09-10 18:12:19,1408014
2025-09-10 18:12:19,1408010
2025-09-10 18:12:19,1408135
2025-09-10 18:12:19,1408186
2025-09-10 18:12:19,1408265
2025-09-10 18:12:19,1408338
2025-09-10 18:12:19,1408465
2025-09-10 18:12:19,1408593
2025-09-10 18:12:19,1408618
2025-09-10 18:12:19,1408709
2025-09-10 18:12:19,1408753
2025-09-10 18:12:19,1408806
2025-09-10 18:12:19,1408786
2025-09-10 18:12:19,1408786
2025-09-10 18:12:19,1408740
2025-09-10 18:12:19,1408742
2025-09-10 18:12:19,1408662
2025-09-10 18:12:19,1408622
2025-09-10 18:12:19,1408609
2025-09-10 18:12:19,1408687
2025-09-10 18:12:19,1408653
2025-09-10 18:12:19,1408572
2025-09-10 18:12:19,1408603
2025-09-10 18:12:19,1408748
2025-09-10 18:12:19,1408673
2025-09-10 18:12:19,1408672
2025-09-10 18:12:19,1408868
2025-09-10 18:12:19,1408903
2025-09-10 18:12:19,1408906
2025-09-10 18:12:19,1408997
2025-09-10 18:12:19,1409100
2025-09-10 18:12:19,1409132
2025-09-10 18:12:19,1409208
2025-09-10 18:12:19,1409301
2025-09-10 18:12:19,1409425
2025-09-10 18:12:19,1409421
2025-09-10 18:12:19,1409572
2025-09-10 18:12:19,1409675
2025-09-10 18:12:19,1409850
2025-09-10 18:12:19,1409852
2025-09-10 18:12:19,1409892
2025-09-10 18:12:19,1410117
2025-09-10 18:12:19,1410162
2025-09-10 18:12:19,1410228
2025-09-10 18:12:19,1410356
2025-09-10 18:12:19,1410453
2025-09-10 18:12:19,1410525
2025-09-10 18:12:19,1410634
2025-09-10 18:12:19,1410743
2025-09-10 18:12:19,1410911
2025-09-10 18:12:19,1410940
2025-09-10 18:12:19,1411098
2025-09-10 18:12:19,1411227
2025-09-10 18:12:19,1411322
2025-09-10 18:12:19,1411305
2025-09-10 18:12:19,1411473
2025-09-10 18:12:19,1411485
2025-09-10 18:12:19,1411414
2025-09-10 18:12:19,1411041
2025-09-10 18:12:19,1410544
2025-09-10 18:12:19,1409735
2025-09-10 18:12:19,1408868
2025-09-10 18:12:20,1408139
2025-09-10 18:12:20,1407483
2025-09-10 18:12:20,1406958
2025-09-10 18:12:20,1406598
2025-09-10 18:12:20,1406207
2025-09-10 18:12:20,1405951
2025-09-10 18:12:20,1405783
2025-09-10 18:12:20,1405622
2025-09-10 18:12:20,1405481
2025-09-10 18:12:20,1405450
2025-09-10 18:12:20,1405423
2025-09-10 18:12:20,1405373
2025-09-10 18:12:20,1405346
2025-09-10 18:12:20,1405329
2025-09-10 18:12:20,1405356
2025-09-10 18:12:20,1405432
2025-09-10 18:12:20,1405359
2025-09-10 18:12:20,1405402
2025-09-10 18:12:20,1405362
2025-09-10 18:12:20,1405467
2025-09-10 18:12:20,1405431
2025-09-10 18:12:20,1405449
2025-09-10 18:12:20,1405515
2025-09-10 18:12:20,1405593
2025-09-10 18:12:20,1405707
2025-09-10 18:12:20,1405812
2025-09-10 18:12:20,1405951
2025-09-10 18:12:20,1406026
2025-09-10 18:12:20,1406137
2025-09-10 18:12:20,1406183
2025-09-10 18:12:20,1406257
2025-09-10 18:12:20,1406290
2025-09-10 18:12:20,1406252
2025-09-10 18:12:20,1406207
2025-09-10 18:12:20,1406267
2025-09-10 18:12:20,1406208
2025-09-10 18:12:20,1406165
2025-09-10 18:12:20,1406194
2025-09-10 18:12:20,1406106
2025-09-10 18:12:20,1406102
2025-09-10 18:12:20,1406142
2025-09-10 18:12:20,1406146
2025-09-10 18:12:20,1406232
2025-09-10 18:12:20,1406264
2025-09-10 18:12:20,1406305
2025-09-10 18:12:20,1406369
2025-09-10 18:12:20,1406377
2025-09-10 18:12:20,1406516
2025-09-10 18:12:20,1406537
2025-09-10 18:12:20,1406601
2025-09-10 18:12:20,1406779
2025-09-10 18:12:20,1406903
2025-09-10 18:12:20,1407008
2025-09-10 18:12:20,1407063
2025-09-10 18:12:20,1407134
2025-09-10 18:12:20,1407271
2025-09-10 18:12:20,1407425
2025-09-10 18:12:20,1407487
2025-09-10 18:12:20,1407638
2025-09-10 18:12:20,1407716
2025-09-10 18:12:20,1407833
2025-09-10 18:12:20,1407940
2025-09-10 18:12:20,1408165
2025-09-10 18:12:20,1408204
2025-09-10 18:12:20,1408321
2025-09-10 18:12:20,1408385
2025-09-10 18:12:20,1408548
2025-09-10 18:12:20,1408546
2025-09-10 18:12:20,1408745
2025-09-10 18:12:20,1408786
2025-09-10 18:12:20,1408940
2025-09-10 18:12:20,1408956
2025-09-10 18:12:20,1409170
2025-09-10 18:12:20,1409191
2025-09-10 18:12:20,1409334
2025-09-10 18:12:20,1409373
2025-09-10 18:12:20,1409539
2025-09-10 18:12:20,1409649
2025-09-10 18:12:20,1409674
2025-09-10 18:12:20,1409701
2025-09-10 18:12:20,1409507
2025-09-10 18:12:20,1409070
2025-09-10 18:12:20,1408356
2025-09-10 18:12:20,1407522
2025-09-10 18:12:20,1406697
2025-09-10 18:12:20,1405925
2025-09-10 18:12:20,1405346
2025-09-10 18:12:20,1404843
2025-09-10 18:12:20,1404481
2025-09-10 18:12:20,1404159
2025-09-10 18:12:20,1403923
2025-09-10 18:12:20,1403790
2025-09-10 18:12:20,1403714
2025-09-10 18:12:20,1403664
2025-09-10 18:12:20,1403619
2025-09-10 18:12:20,1403647
2025-09-10 18:12:20,1403568
2025-09-10 18:12:20,1403521
2025-09-10 18:12:20,1403522
2025-09-10 18:12:20,1403498
2025-09-10 18:12:21,1403503
2025-09-10 18:12:21,1403530
2025-09-10 18:12:21,1403582
2025-09-10 18:12:21,1403569
2025-09-10 18:12:21,1403592
2025-09-10 18:12:21,1403571
2025-09-10 18:12:21,1403606
2025-09-10 18:12:21,1403742
2025-09-10 18:12:21,1403905
2025-09-10 18:12:21,1403890
2025-09-10 18:12:21,1404038
2025-09-10 18:12:21,1404119
2025-09-10 18:12:21,1404131
2025-09-10 18:12:21,1404189
2025-09-10 18:12:21,1404282
2025-09-10 18:12:21,1404242
2025-09-10 18:12:21,1404280
2025-09-10 18:12:21,1404227
2025-09-10 18:12:21,1404189
2025-09-10 18:12:21,1404121
2025-09-10 18:12:21,1404129
2025-09-10 18:12:21,1404072
2025-09-10 18:12:21,1404092
2025-09-10 18:12:21,1404102
2025-09-10 18:12:21,1404088
2025-09-10 18:12:21,1404100
2025-09-10 18:12:21,1404055
2025-09-10 18:12:21,1404204
2025-09-10 18:12:21,1404182
2025-09-10 18:12:21,1404327
2025-09-10 18:12:21,1404319
2025-09-10 18:12:21,1404436
2025-09-10 18:12:21,1404534
2025-09-10 18:12:21,1404540
2025-09-10 18:12:21,1404636
2025-09-10 18:12:21,1404729
2025-09-10 18:12:21,1404843
2025-09-10 18:12:21,1404934
2025-09-10 18:12:21,1405095
2025-09-10 18:12:21,1405110
2025-09-10 18:12:21,1405221
2025-09-10 18:12:21,1405279
2025-09-10 18:12:21,1405472
2025-09-10 18:12:21,1405495
2025-09-10 18:12:21,1405609
2025-09-10 18:12:21,1405637
2025-09-10 18:12:21,1405769
2025-09-10 18:12:21,1405880
2025-09-10 18:12:21,1405989
2025-09-10 18:12:21,1406068
2025-09-10 18:12:21,1406157
2025-09-10 18:12:21,1406209
2025-09-10 18:12:21,1406358
2025-09-10 18:12:21,1406486
2025-09-10 18:12:21,1406580
2025-09-10 18:12:21,1406612
2025-09-10 18:12:21,1406767
2025-09-10 18:12:21,1406889
2025-09-10 18:12:21,1406773
2025-09-10 18:12:21,1406529
2025-09-10 18:12:21,1406063
2025-09-10 18:12:21,1405281
2025-09-10 18:12:21,1404477
2025-09-10 18:12:21,1403801
2025-09-10 18:12:21,1403186
2025-09-10 18:12:21,1402620
2025-09-10 18:12:21,1402302
2025-09-10 18:12:21,1401917
2025-09-10 18:12:21,1401659
2025-09-10 18:12:21,1401440
2025-09-10 18:12:21,1401343
2025-09-10 18:12:21,1401184
2025-09-10 18:12:21,1401135
2025-09-10 18:12:21,1401096
2025-09-10 18:12:21,1401032
2025-09-10 18:12:21,1400982
2025-09-10 18:12:21,1401020
2025-09-10 18:12:21,1401020
2025-09-10 18:12:21,1401038
2025-09-10 18:12:21,1401017
2025-09-10 18:12:21,1401028
2025-09-10 18:12:21,1400901
2025-09-10 18:12:21,1401015
2025-09-10 18:12:21,1401029
2025-09-10 18:12:21,1400963
2025-09-10 18:12:21,1401062
2025-09-10 18:12:21,1401134
2025-09-10 18:12:21,1401166
2025-09-10 18:12:21,1401202
2025-09-10 18:12:21,1401306
2025-09-10 18:12:21,1401438
2025-09-10 18:12:21,1401564
2025-09-10 18:12:21,1401550
2025-09-10 18:12:21,1401639
2025-09-10 18:12:21,1401705
2025-09-10 18:12:21,1401690
2025-09-10 18:12:21,1401627
2025-09-10 18:12:21,1401767
2025-09-10 18:12:21,1401685
2025-09-10 18:12:21,1401670
2025-09-10 18:12:22,1401599
2025-09-10 18:12:22,1401577
2025-09-10 18:12:22,1401666
2025-09-10 18:12:22,1401622
2025-09-10 18:12:22,1401677
2025-09-10 18:12:22,1401744
2025-09-10 18:12:22,1401728
2025-09-10 18:12:22,1401860
2025-09-10 18:12:22,1401903
2025-09-10 18:12:22,1401969
2025-09-10 18:12:22,1402041
2025-09-10 18:12:22,1402197
2025-09-10 18:12:22,1402141
2025-09-10 18:12:22,1402307
2025-09-10 18:12:22,1402370
2025-09-10 18:12:22,1402529
2025-09-10 18:12:22,1402630
2025-09-10 18:12:22,1402734
2025-09-10 18:12:22,1402811
2025-09-10 18:12:22,1402887
2025-09-10 18:12:22,1403000
2025-09-10 18:12:22,1403134
2025-09-10 18:12:22,1403218
2025-09-10 18:12:22,1403296
2025-09-10 18:12:22,1403435
2025-09-10 18:12:22,1403565
2025-09-10 18:12:22,1403630
2025-09-10 18:12:22,1403772
2025-09-10 18:12:22,1403828
2025-09-10 18:12:22,1403978
2025-09-10 18:12:22,1404035
2025-09-10 18:12:22,1404191
2025-09-10 18:12:22,1404293
2025-09-10 18:12:22,1404278
2025-09-10 18:12:22,1404206
2025-09-10 18:12:22,1403853
2025-09-10 18:12:22,1403166
2025-09-10 18:12:22,1402370
2025-09-10 18:12:22,1401644
2025-09-10 18:12:22,1400980
2025-09-10 18:12:22,1400514
2025-09-10 18:12:22,1400076
2025-09-10 18:12:22,1399769
2025-09-10 18:12:22,1399504
2025-09-10 18:12:22,1399228
2025-09-10 18:12:22,1399053
2025-09-10 18:12:22,1399012
2025-09-10 18:12:22,1398877
2025-09-10 18:12:22,1398839
2025-09-10 18:12:22,1398850
2025-09-10 18:12:22,1398770
2025-09-10 18:12:22,1398814
2025-09-10 18:12:22,1398754
2025-09-10 18:12:22,1398686
2025-09-10 18:12:22,1398705
2025-09-10 18:12:22,1398715
2025-09-10 18:12:22,1398692
2025-09-10 18:12:22,1398737
2025-09-10 18:12:22,1398794
2025-09-10 18:12:22,1398800
2025-09-10 18:12:22,1398855
2025-09-10 18:12:22,1398944
2025-09-10 18:12:22,1399015
2025-09-10 18:12:22,1399111
2025-09-10 18:12:22,1399194
2025-09-10 18:12:22,1399288
2025-09-10 18:12:22,1399369
2025-09-10 18:12:22,1399478
2025-09-10 18:12:22,1399558
2025-09-10 18:12:22,1399581
2025-09-10 18:12:22,1399685
2025-09-10 18:12:22,1399596
2025-09-10 18:12:22,1399640
2025-09-10 18:12:22,1399651
2025-09-10 18:12:22,1399740
2025-09-10 18:12:22,1399589
2025-09-10 18:12:22,1399616
2025-09-10 18:12:22,1399619
2025-09-10 18:12:22,1399702
2025-09-10 18:12:22,1399688
2025-09-10 18:12:22,1399739
2025-09-10 18:12:22,1399807
2025-09-10 18:12:22,1399869
2025-09-10 18:12:22,1400054
2025-09-10 18:12:22,1400052
2025-09-10 18:12:22,1400161
2025-09-10 18:12:22,1400230
2025-09-10 18:12:22,1400353
2025-09-10 18:12:22,1400497
2025-09-10 18:12:22,1400510
2025-09-10 18:12:22,1400648
2025-09-10 18:12:22,1400825
2025-09-10 18:12:22,1400864
2025-09-10 18:12:22,1401037
2025-09-10 18:12:22,1401120
2025-09-10 18:12:22,1401266
2025-09-10 18:12:22,1401447
2025-09-10 18:12:22,1401430
2025-09-10 18:12:22,1401621
2025-09-10 18:12:22,1401696
2025-09-10 18:12:23,1401786
2025-09-10 18:12:23,1401947
2025-09-10 18:12:23,1402034
2025-09-10 18:12:23,1402193
2025-09-10 18:12:23,1402299
2025-09-10 18:12:23,1402427
2025-09-10 18:12:23,1402577
2025-09-10 18:12:23,1402717
2025-09-10 18:12:23,1402875
2025-09-10 18:12:23,1402938
2025-09-10 18:12:23,1403037
2025-09-10 18:12:23,1403021
2025-09-10 18:12:23,1402706
2025-09-10 18:12:23,1402159
2025-09-10 18:12:23,1401447
2025-09-10 18:12:23,1400606
2025-09-10 18:12:23,1399852
2025-09-10 18:12:23,1399337
2025-09-10 18:12:23,1398872
2025-09-10 18:12:23,1398500
2025-09-10 18:12:23,1398218
2025-09-10 18:12:23,1398058
2025-09-10 18:12:23,1397854
2025-09-10 18:12:23,1397700
2025-09-10 18:12:23,1397688
2025-09-10 18:12:23,1397628
2025-09-10 18:12:23,1397573
2025-09-10 18:12:23,1397621
2025-09-10 18:12:23,1397514
2025-09-10 18:12:23,1397592
2025-09-10 18:12:23,1397643
2025-09-10 18:12:23,1397607
2025-09-10 18:12:23,1397679
2025-09-10 18:12:23,1397646
2025-09-10 18:12:23,1397660
2025-09-10 18:12:23,1397721
2025-09-10 18:12:23,1397745
2025-09-10 18:12:23,1397781
2025-09-10 18:12:23,1397839
2025-09-10 18:12:23,1397910
2025-09-10 18:12:23,1397995
2025-09-10 18:12:23,1398243
2025-09-10 18:12:23,1398300
2025-09-10 18:12:23,1398390
2025-09-10 18:12:23,1398427
2025-09-10 18:12:23,1398477
2025-09-10 18:12:23,1398577
2025-09-10 18:12:23,1398518
2025-09-10 18:12:23,1398577
2025-09-10 18:12:23,1398522
2025-09-10 18:12:23,1398512
2025-09-10 18:12:23,1398475
2025-09-10 18:12:23,1398436
2025-09-10 18:12:23,1398401
2025-09-10 18:12:23,1398348
2025-09-10 18:12:23,1398426
2025-09-10 18:12:23,1398408
2025-09-10 18:12:23,1398432
2025-09-10 18:12:23,1398505
2025-09-10 18:12:23,1398514
2025-09-10 18:12:23,1398621
2025-09-10 18:12:23,1398746
2025-09-10 18:12:23,1398802
2025-09-10 18:12:23,1398814
2025-09-10 18:12:23,1399051
2025-09-10 18:12:23,1399031
2025-09-10 18:12:23,1399123
2025-09-10 18:12:23,1399180
2025-09-10 18:12:23,1399290
2025-09-10 18:12:23,1399347
2025-09-10 18:12:23,1399434
2025-09-10 18:12:23,1399573
2025-09-10 18:12:23,1399667
2025-09-10 18:12:23,1399787
2025-09-10 18:12:23,1399914
2025-09-10 18:12:23,1399939
2025-09-10 18:12:23,1400083
2025-09-10 18:12:23,1400194
2025-09-10 18:12:23,1400295
2025-09-10 18:12:23,1400324
2025-09-10 18:12:23,1400492
2025-09-10 18:12:23,1400611
2025-09-10 18:12:23,1400690
2025-09-10 18:12:23,1400853
2025-09-10 18:12:23,1400931
2025-09-10 18:12:23,1401026
2025-09-10 18:12:23,1401001
2025-09-10 18:12:23,1400884
2025-09-10 18:12:23,1400466
2025-09-10 18:12:23,1399802
2025-09-10 18:12:23,1398992
2025-09-10 18:12:23,1398208
2025-09-10 18:12:23,1397706
2025-09-10 18:12:23,1397267
2025-09-10 18:12:23,1396770
2025-09-10 18:12:23,1396447
2025-09-10 18:12:23,1396199
2025-09-10 18:12:23,1396054
2025-09-10 18:12:23,1395902
2025-09-10 18:12:23,1395745
2025-09-10 18:12:23,1395723
2025-09-10 18:12:24,1395696
2025-09-10 18:12:24,1395711
2025-09-10 18:12:24,1395662
2025-09-10 18:12:24,1395618
2025-09-10 18:12:24,1395642
2025-09-10 18:12:24,1395605
2025-09-10 18:12:24,1395653
2025-09-10 18:12:24,1395573
2025-09-10 18:12:24,1395615
2025-09-10 18:12:24,1395574
2025-09-10 18:12:24,1395641
2025-09-10 18:12:24,1395728
2025-09-10 18:12:24,1395759
2025-09-10 18:12:24,1395808
2025-09-10 18:12:24,1395854
2025-09-10 18:12:24,1396027
2025-09-10 18:12:24,1396082
2025-09-10 18:12:24,1396147
2025-09-10 18:12:24,1396242
2025-09-10 18:12:24,1396341
2025-09-10 18:12:24,1396358
2025-09-10 18:12:24,1396335
2025-09-10 18:12:24,1396398
2025-09-10 18:12:24,1396313
2025-09-10 18:12:24,1396348
2025-09-10 18:12:24,1396292
2025-09-10 18:12:24,1396258
2025-09-10 18:12:24,1396250
2025-09-10 18:12:24,1396212
2025-09-10 18:12:24,1396345
2025-09-10 18:12:24,1396260
2025-09-10 18:12:24,1396314
2025-09-10 18:12:24,1396363
2025-09-10 18:12:24,1396461
2025-09-10 18:12:24,1396587
2025-09-10 18:12:24,1396552
2025-09-10 18:12:24,1396658
2025-09-10 18:12:24,1396732
2025-09-10 18:12:24,1396863
2025-09-10 18:12:24,1396992
2025-09-10 18:12:24,1397080
2025-09-10 18:12:24,1397184
2025-09-10 18:12:24,1397284
2025-09-10 18:12:24,1397420
2025-09-10 18:12:24,1397491
2025-09-10 18:12:24,1397634
2025-09-10 18:12:24,1397644
2025-09-10 18:12:24,1397826
2025-09-10 18:12:24,1397945
2025-09-10 18:12:24,1397980
2025-09-10 18:12:24,1398040
2025-09-10 18:12:24,1398226
2025-09-10 18:12:24,1398290
2025-09-10 18:12:24,1398376
2025-09-10 18:12:24,1398552
2025-09-10 18:12:24,1398602
2025-09-10 18:12:24,1398736
2025-09-10 18:12:24,1398896
2025-09-10 18:12:24,1398915
2025-09-10 18:12:24,1399133
2025-09-10 18:12:24,1399283
2025-09-10 18:12:24,1399314
2025-09-10 18:12:24,1399364
2025-09-10 18:12:24,1399519
2025-09-10 18:12:24,1399598
2025-09-10 18:12:24,1399483
2025-09-10 18:12:24,1399187
2025-09-10 18:12:24,1398562
2025-09-10 18:12:24,1397764
2025-09-10 18:12:24,1397020
2025-09-10 18:12:24,1396318
2025-09-10 18:12:24,1395848
2025-09-10 18:12:24,1395314
2025-09-10 18:12:24,1395044
2025-09-10 18:12:24,1394710
2025-09-10 18:12:24,1394415
2025-09-10 18:12:24,1394282
2025-09-10 18:12:24,1394243
2025-09-10 18:12:24,1394151
2025-09-10 18:12:24,1394025
2025-09-10 18:12:24,1394027
2025-09-10 18:12:24,1393905
2025-09-10 18:12:24,1393958
2025-09-10 18:12:24,1393939
2025-09-10 18:12:24,1393904
2025-09-10 18:12:24,1393915
2025-09-10 18:12:24,1393866
2025-09-10 18:12:24,1393866
2025-09-10 18:12:24,1393862
2025-09-10 18:12:24,1393830
2025-09-10 18:12:24,1393799
2025-09-10 18:12:24,1393864
2025-09-10 18:12:24,1393935
2025-09-10 18:12:24,1394031
2025-09-10 18:12:24,1394078
2025-09-10 18:12:24,1394138
2025-09-10 18:12:24,1394171
2025-09-10 18:12:24,1394308
2025-09-10 18:12:24,1394341
2025-09-10 18:12:24,1394454
2025-09-10 18:12:25,1394526
2025-09-10 18:12:25,1394550
2025-09-10 18:12:25,1394464
2025-09-10 18:12:25,1394516
2025-09-10 18:12:25,1394461
2025-09-10 18:12:25,1394481
2025-09-10 18:12:25,1394527
2025-09-10 18:12:25,1394447
2025-09-10 18:12:25,1394423
2025-09-10 18:12:25,1394452
2025-09-10 18:12:25,1394504
2025-09-10 18:12:25,1394538
2025-09-10 18:12:25,1394575
2025-09-10 18:12:25,1394642
2025-09-10 18:12:25,1394728
2025-09-10 18:12:25,1394802
2025-09-10 18:12:25,1394906
2025-09-10 18:12:25,1394968
2025-09-10 18:12:25,1395047
2025-09-10 18:12:25,1395091
2025-09-10 18:12:25,1395249
2025-09-10 18:12:25,1395383
2025-09-10 18:12:25,1395469
2025-09-10 18:12:25,1395526
2025-09-10 18:12:25,1395657
2025-09-10 18:12:25,1395762
2025-09-10 18:12:25,1395913
2025-09-10 18:12:25,1395977
2025-09-10 18:12:25,1396119
2025-09-10 18:12:25,1396202
2025-09-10 18:12:25,1396295
2025-09-10 18:12:25,1396423
2025-09-10 18:12:25,1396568
2025-09-10 18:12:25,1396685
2025-09-10 18:12:25,1396794
2025-09-10 18:12:25,1396891
2025-09-10 18:12:25,1397057
2025-09-10 18:12:25,1397104
2025-09-10 18:12:25,1397197
2025-09-10 18:12:25,1397382
2025-09-10 18:12:25,1397481
2025-09-10 18:12:25,1397556
2025-09-10 18:12:25,1397682
2025-09-10 18:12:25,1397865
2025-09-10 18:12:25,1397996
2025-09-10 18:12:25,1398101
2025-09-10 18:12:25,1398237
2025-09-10 18:12:25,1398272
2025-09-10 18:12:25,1398276
2025-09-10 18:12:25,1398033
2025-09-10 18:12:25,1397564
2025-09-10 18:12:25,1396843
2025-09-10 18:12:25,1395973
2025-09-10 18:12:25,1395314
2025-09-10 18:12:25,1394801
2025-09-10 18:12:25,1394270
2025-09-10 18:12:25,1393930
2025-09-10 18:12:25,1393592
2025-09-10 18:12:25,1393396
2025-09-10 18:12:25,1393305
2025-09-10 18:12:25,1393081
2025-09-10 18:12:25,1393075
2025-09-10 18:12:25,1392943
2025-09-10 18:12:25,1392985
2025-09-10 18:12:25,1392913
2025-09-10 18:12:25,1392946
2025-09-10 18:12:25,1392955
2025-09-10 18:12:25,1393020
2025-09-10 18:12:25,1392997
2025-09-10 18:12:25,1392943
2025-09-10 18:12:25,1392922
2025-09-10 18:12:25,1392949
2025-09-10 18:12:25,1393004
2025-09-10 18:12:25,1392993
2025-09-10 18:12:25,1392979
2025-09-10 18:12:25,1393061
2025-09-10 18:12:25,1393160
2025-09-10 18:12:25,1393262
2025-09-10 18:12:25,1393266
2025-09-10 18:12:25,1393427
2025-09-10 18:12:25,1393439
2025-09-10 18:12:25,1393634
2025-09-10 18:12:25,1393608
2025-09-10 18:12:25,1393722
2025-09-10 18:12:25,1393708
2025-09-10 18:12:25,1393768
2025-09-10 18:12:25,1393698
2025-09-10 18:12:25,1393706
2025-09-10 18:12:25,1393709
2025-09-10 18:12:25,1393682
2025-09-10 18:12:25,1393693
2025-09-10 18:12:25,1393737
2025-09-10 18:12:25,1393743
2025-09-10 18:12:25,1393729
2025-09-10 18:12:25,1393761
2025-09-10 18:12:25,1393894
2025-09-10 18:12:25,1393894
2025-09-10 18:12:25,1394005
2025-09-10 18:12:25,1394046
2025-09-10 18:12:26,1394135
2025-09-10 18:12:26,1394253
2025-09-10 18:12:26,1394286
2025-09-10 18:12:26,1394424
2025-09-10 18:12:26,1394540
2025-09-10 18:12:26,1394686
2025-09-10 18:12:26,1394789
2025-09-10 18:12:26,1394793
2025-09-10 18:12:26,1394965
2025-09-10 18:12:26,1395097
2025-09-10 18:12:26,1395223
2025-09-10 18:12:26,1395334
2025-09-10 18:12:26,1395403
2025-09-10 18:12:26,1395551
2025-09-10 18:12:26,1395643
2025-09-10 18:12:26,1395739
2025-09-10 18:12:26,1395865
2025-09-10 18:12:26,1395977
2025-09-10 18:12:26,1396115
2025-09-10 18:12:26,1396184
2025-09-10 18:12:26,1396343
2025-09-10 18:12:26,1396392
2025-09-10 18:12:26,1396584
2025-09-10 18:12:26,1396677
2025-09-10 18:12:26,1396768
2025-09-10 18:12:26,1396876
2025-09-10 18:12:26,1396954
2025-09-10 18:12:26,1397067
2025-09-10 18:12:26,1397179
2025-09-10 18:12:26,1397290
2025-09-10 18:12:26,1397427
2025-09-10 18:12:26,1397609
2025-09-10 18:12:26,1397645
2025-09-10 18:12:26,1397581
2025-09-10 18:12:26,1397401
2025-09-10 18:12:26,1397025
2025-09-10 18:12:26,1396285
2025-09-10 18:12:26,1395496
2025-09-10 18:12:26,1394815
2025-09-10 18:12:26,1394241
2025-09-10 18:12:26,1393687
2025-09-10 18:12:26,1393340
2025-09-10 18:12:26,1393046
2025-09-10 18:12:26,1392792
2025-09-10 18:12:26,1392670
2025-09-10 18:12:26,1392529
2025-09-10 18:12:26,1392469
2025-09-10 18:12:26,1392423
2025-09-10 18:12:26,1392466
2025-09-10 18:12:26,1392432
2025-09-10 18:12:26,1392475
2025-09-10 18:12:26,1392489
2025-09-10 18:12:26,1392521
2025-09-10 18:12:26,1392541
2025-09-10 18:12:26,1392564
2025-09-10 18:12:26,1392594
2025-09-10 18:12:26,1392604
2025-09-10 18:12:26,1392667
2025-09-10 18:12:26,1392700
2025-09-10 18:12:26,1392856
2025-09-10 18:12:26,1392920
2025-09-10 18:12:26,1392955
2025-09-10 18:12:26,1393038
2025-09-10 18:12:26,1393155
2025-09-10 18:12:26,1393281
2025-09-10 18:12:26,1393332
2025-09-10 18:12:26,1393406
2025-09-10 18:12:26,1393526
2025-09-10 18:12:26,1393582
2025-09-10 18:12:26,1393475
2025-09-10 18:12:26,1393470
2025-09-10 18:12:26,1393496
2025-09-10 18:12:26,1393486
2025-09-10 18:12:26,1393387
2025-09-10 18:12:26,1393394
2025-09-10 18:12:26,1393416
2025-09-10 18:12:26,1393396
2025-09-10 18:12:26,1393354
2025-09-10 18:12:26,1393418
2025-09-10 18:12:26,1393408
2025-09-10 18:12:26,1393477
2025-09-10 18:12:26,1393575
2025-09-10 18:12:26,1393617
2025-09-10 18:12:26,1393802
2025-09-10 18:12:26,1393856
2025-09-10 18:12:26,1393916
2025-09-10 18:12:26,1394041
2025-09-10 18:12:26,1394134
2025-09-10 18:12:26,1394195
2025-09-10 18:12:26,1394356
2025-09-10 18:12:26,1394319
2025-09-10 18:12:26,1394491
2025-09-10 18:12:26,1394666
2025-09-10 18:12:26,1394725
2025-09-10 18:12:26,1394867
2025-09-10 18:12:26,1394971
2025-09-10 18:12:26,1395106
2025-09-10 18:12:26,1395180
2025-09-10 18:12:26,1395305
2025-09-10 18:12:26,1395414
2025-09-10 18:12:27,1395548
2025-09-10 18:12:27,1395634
2025-09-10 18:12:27,1395714
2025-09-10 18:12:27,1395911
2025-09-10 18:12:27,1396015
2025-09-10 18:12:27,1396069
2025-09-10 18:12:27,1396158
2025-09-10 18:12:27,1396281
2025-09-10 18:12:27,1396415
2025-09-10 18:12:27,1396532
2025-09-10 18:12:27,1396632
2025-09-10 18:12:27,1396745
2025-09-10 18:12:27,1396899
2025-09-10 18:12:27,1396943
2025-09-10 18:12:27,1397102
2025-09-10 18:12:27,1396995
2025-09-10 18:12:27,1396823
2025-09-10 18:12:27,1396294
2025-09-10 18:12:27,1395498
2025-09-10 18:12:27,1394684
2025-09-10 18:12:27,1394061
2025-09-10 18:12:27,1393463
2025-09-10 18:12:27,1392983
2025-09-10 18:12:27,1392588
2025-09-10 18:12:27,1392303
2025-09-10 18:12:27,1392045
2025-09-10 18:12:27,1391905
2025-09-10 18:12:27,1391874
2025-09-10 18:12:27,1391726
2025-09-10 18:12:27,1391694
2025-09-10 18:12:27,1391698
2025-09-10 18:12:27,1391709
2025-09-10 18:12:27,1391666
2025-09-10 18:12:27,1391716
2025-09-10 18:12:27,1391656
2025-09-10 18:12:27,1391702
2025-09-10 18:12:27,1391757
2025-09-10 18:12:27,1391705
2025-09-10 18:12:27,1391722
2025-09-10 18:12:27,1391751
2025-09-10 18:12:27,1391853
2025-09-10 18:12:27,1391907
2025-09-10 18:12:27,1391920
2025-09-10 18:12:27,1392002
2025-09-10 18:12:27,1392071
2025-09-10 18:12:27,1392221
2025-09-10 18:12:27,1392279
2025-09-10 18:12:27,1392412
2025-09-10 18:12:27,1392417
2025-09-10 18:12:27,1392490
2025-09-10 18:12:27,1392492
2025-09-10 18:12:27,1392556
2025-09-10 18:12:27,1392571
2025-09-10 18:12:27,1392543
2025-09-10 18:12:27,1392548
2025-09-10 18:12:27,1392428
2025-09-10 18:12:27,1392496
2025-09-10 18:12:27,1392514
2025-09-10 18:12:27,1392459
2025-09-10 18:12:27,1392463
2025-09-10 18:12:27,1392488
2025-09-10 18:12:27,1392467
2025-09-10 18:12:27,1392523
2025-09-10 18:12:27,1392587
2025-09-10 18:12:27,1392663
2025-09-10 18:12:27,1392669
2025-09-10 18:12:27,1392796
2025-09-10 18:12:27,1392919
2025-09-10 18:12:27,1393004
2025-09-10 18:12:27,1393078
2025-09-10 18:12:27,1393219
2025-09-10 18:12:27,1393284
2025-09-10 18:12:27,1393443
2025-09-10 18:12:27,1393449
2025-09-10 18:12:27,1393444
2025-09-10 18:12:27,1393722
2025-09-10 18:12:27,1393803
2025-09-10 18:12:27,1393871
2025-09-10 18:12:27,1394058
2025-09-10 18:12:27,1394081
2025-09-10 18:12:27,1394207
2025-09-10 18:12:27,1394372
2025-09-10 18:12:27,1394542
2025-09-10 18:12:27,1394524
2025-09-10 18:12:27,1394676
2025-09-10 18:12:27,1394866
2025-09-10 18:12:27,1394846
2025-09-10 18:12:27,1394978
2025-09-10 18:12:27,1395093
2025-09-10 18:12:27,1395197
2025-09-10 18:12:27,1395310
2025-09-10 18:12:27,1395367
2025-09-10 18:12:27,1395455
2025-09-10 18:12:27,1395610
2025-09-10 18:12:27,1395682
2025-09-10 18:12:27,1395746
2025-09-10 18:12:27,1395918
2025-09-10 18:12:27,1395994
2025-09-10 18:12:27,1396134
2025-09-10 18:12:27,1396209
2025-09-10 18:12:27,1396330
2025-09-10 18:12:28,1396530
2025-09-10 18:12:28,1396549
2025-09-10 18:12:28,1396492
2025-09-10 18:12:28,1396157
2025-09-10 18:12:28,1395482
2025-09-10 18:12:28,1394725
2025-09-10 18:12:28,1393900
2025-09-10 18:12:28,1393248
2025-09-10 18:12:28,1392636
2025-09-10 18:12:28,1392211
2025-09-10 18:12:28,1391897
2025-09-10 18:12:28,1391646
2025-09-10 18:12:28,1391367
2025-09-10 18:12:28,1391270
2025-09-10 18:12:28,1391201
2025-09-10 18:12:28,1391168
2025-09-10 18:12:28,1391236
2025-09-10 18:12:28,1391270
2025-09-10 18:12:28,1391220
2025-09-10 18:12:28,1391217
2025-09-10 18:12:28,1391281
2025-09-10 18:12:28,1391272
2025-09-10 18:12:28,1391231
2025-09-10 18:12:28,1391285
2025-09-10 18:12:28,1391322
2025-09-10 18:12:28,1391354
2025-09-10 18:12:28,1391369
2025-09-10 18:12:28,1391409
2025-09-10 18:12:28,1391465
2025-09-10 18:12:28,1391507
2025-09-10 18:12:28,1391613
2025-09-10 18:12:28,1391773
2025-09-10 18:12:28,1391795
2025-09-10 18:12:28,1391986
2025-09-10 18:12:28,1392071
2025-09-10 18:12:28,1392180
2025-09-10 18:12:28,1392179
2025-09-10 18:12:28,1392295
2025-09-10 18:12:28,1392371
2025-09-10 18:12:28,1392349
2025-09-10 18:12:28,1392346
2025-09-10 18:12:28,1392413
2025-09-10 18:12:28,1392414
2025-09-10 18:12:28,1392411
2025-09-10 18:12:28,1392313
2025-09-10 18:12:28,1392398
2025-09-10 18:12:28,1392435
2025-09-10 18:12:28,1392526
2025-09-10 18:12:28,1392491
2025-09-10 18:12:28,1392534
2025-09-10 18:12:28,1392716
2025-09-10 18:12:28,1392678
2025-09-10 18:12:28,1392853
2025-09-10 18:12:28,1392971
2025-09-10 18:12:28,1393065
2025-09-10 18:12:28,1393121
2025-09-10 18:12:28,1393229
2025-09-10 18:12:28,1393374
2025-09-10 18:12:28,1393501
2025-09-10 18:12:28,1393558
2025-09-10 18:12:28,1393672
2025-09-10 18:12:28,1393797
2025-09-10 18:12:28,1393878
2025-09-10 18:12:28,1394106
2025-09-10 18:12:28,1394179
2025-09-10 18:12:28,1394259
2025-09-10 18:12:28,1394380
2025-09-10 18:12:28,1394486
2025-09-10 18:12:28,1394679
2025-09-10 18:12:28,1394745
2025-09-10 18:12:28,1394857
2025-09-10 18:12:28,1394990
2025-09-10 18:12:28,1395100
2025-09-10 18:12:28,1395226
2025-09-10 18:12:28,1395215
2025-09-10 18:12:28,1395469
2025-09-10 18:12:28,1395471
2025-09-10 18:12:28,1395589
2025-09-10 18:12:28,1395647
2025-09-10 18:12:28,1395839
2025-09-10 18:12:28,1395993
2025-09-10 18:12:28,1396073
2025-09-10 18:12:28,1396206
2025-09-10 18:12:28,1396244
2025-09-10 18:12:28,1396409
2025-09-10 18:12:28,1396509
2025-09-10 18:12:28,1396525
2025-09-10 18:12:28,1396402
2025-09-10 18:12:28,1396092
2025-09-10 18:12:28,1395400
2025-09-10 18:12:28,1394554
2025-09-10 18:12:28,1393771
2025-09-10 18:12:28,1393094
2025-09-10 18:12:28,1392539
2025-09-10 18:12:28,1392181
2025-09-10 18:12:28,1391787
2025-09-10 18:12:28,1391563
2025-09-10 18:12:28,1391402
2025-09-10 18:12:28,1391206
2025-09-10 18:12:28,1391210
2025-09-10 18:12:29,1391214
2025-09-10 18:12:29,1391099
2025-09-10 18:12:29,1391168
2025-09-10 18:12:29,1391146
2025-09-10 18:12:29,1391176
2025-09-10 18:12:29,1391194
2025-09-10 18:12:29,1391193
2025-09-10 18:12:29,1391281
2025-09-10 18:12:29,1391304
2025-09-10 18:12:29,1391328
2025-09-10 18:12:29,1391411
2025-09-10 18:12:29,1391450
2025-09-10 18:12:29,1391514
2025-09-10 18:12:29,1391544
2025-09-10 18:12:29,1391693
2025-09-10 18:12:29,1391764
2025-09-10 18:12:29,1391914
2025-09-10 18:12:29,1392066
2025-09-10 18:12:29,1392125
2025-09-10 18:12:29,1392165
2025-09-10 18:12:29,1392251
2025-09-10 18:12:29,1392360
2025-09-10 18:12:29,1392324
2025-09-10 18:12:29,1392363
2025-09-10 18:12:29,1392433
2025-09-10 18:12:29,1392432
2025-09-10 18:12:29,1392355
2025-09-10 18:12:29,1392274
2025-09-10 18:12:29,1392382
2025-09-10 18:12:29,1392331
2025-09-10 18:12:29,1392430
2025-09-10 18:12:29,1392386
2025-09-10 18:12:29,1392417
2025-09-10 18:12:29,1392465
2025-09-10 18:12:29,1392553
2025-09-10 18:12:29,1392656
2025-09-10 18:12:29,1392716
2025-09-10 18:12:29,1392742
2025-09-10 18:12:29,1392868
2025-09-10 18:12:29,1393074
2025-09-10 18:12:29,1393125
2025-09-10 18:12:29,1393267
2025-09-10 18:12:29,1393331
2025-09-10 18:12:29,1393503
2025-09-10 18:12:29,1393663
2025-09-10 18:12:29,1393675
2025-09-10 18:12:29,1393862
2025-09-10 18:12:29,1393946
2025-09-10 18:12:29,1394038
2025-09-10 18:12:29,1394126
2025-09-10 18:12:29,1394289
2025-09-10 18:12:29,1394394
2025-09-10 18:12:29,1394569
2025-09-10 18:12:29,1394584
2025-09-10 18:12:29,1394684
2025-09-10 18:12:29,1394879
2025-09-10 18:12:29,1394967
2025-09-10 18:12:29,1395100
2025-09-10 18:12:29,1395187
2025-09-10 18:12:29,1395326
2025-09-10 18:12:29,1395435
2025-09-10 18:12:29,1395500
2025-09-10 18:12:29,1395668
2025-09-10 18:12:29,1395804
2025-09-10 18:12:29,1395907
2025-09-10 18:12:29,1395969
2025-09-10 18:12:29,1396117
2025-09-10 18:12:29,1396180
2025-09-10 18:12:29,1396111
2025-09-10 18:12:29,1395877
2025-09-10 18:12:29,1395292
2025-09-10 18:12:29,1394522
2025-09-10 18:12:29,1393654
2025-09-10 18:12:29,1392924
2025-09-10 18:12:29,1392354
2025-09-10 18:12:29,1391840
2025-09-10 18:12:29,1391453
2025-09-10 18:12:29,1391191
2025-09-10 18:12:29,1390973
2025-09-10 18:12:29,1390844
2025-09-10 18:12:29,1390727
2025-09-10 18:12:29,1390632
2025-09-10 18:12:29,1390653
2025-09-10 18:12:29,1390517
2025-09-10 18:12:29,1390637
2025-09-10 18:12:29,1390584
2025-09-10 18:12:29,1390554
2025-09-10 18:12:29,1390554
2025-09-10 18:12:29,1390538
2025-09-10 18:12:29,1390651
2025-09-10 18:12:29,1390628
2025-09-10 18:12:29,1390702
2025-09-10 18:12:29,1390637
2025-09-10 18:12:29,1390619
2025-09-10 18:12:29,1390701
2025-09-10 18:12:29,1390771
2025-09-10 18:12:29,1390866
2025-09-10 18:12:29,1390974
2025-09-10 18:12:29,1391036
2025-09-10 18:12:29,1391189
2025-09-10 18:12:30,1391208
2025-09-10 18:12:30,1391367
2025-09-10 18:12:30,1391372
2025-09-10 18:12:30,1391462
2025-09-10 18:12:30,1391494
2025-09-10 18:12:30,1391472
2025-09-10 18:12:30,1391487
2025-09-10 18:12:30,1391501
2025-09-10 18:12:30,1391480
2025-09-10 18:12:30,1391430
2025-09-10 18:12:30,1391375
2025-09-10 18:12:30,1391389
2025-09-10 18:12:30,1391489
2025-09-10 18:12:30,1391529
2025-09-10 18:12:30,1391501
2025-09-10 18:12:30,1391684
2025-09-10 18:12:30,1391750
2025-09-10 18:12:30,1391837
2025-09-10 18:12:30,1391918
2025-09-10 18:12:30,1391970
2025-09-10 18:12:30,1392095
2025-09-10 18:12:30,1392232
2025-09-10 18:12:30,1392438
2025-09-10 18:12:30,1392510
2025-09-10 18:12:30,1392655
2025-09-10 18:12:30,1392636
2025-09-10 18:12:30,1392836
2025-09-10 18:12:30,1392823
2025-09-10 18:12:30,1392932
2025-09-10 18:12:30,1393110
2025-09-10 18:12:30,1393243
2025-09-10 18:12:30,1393372
2025-09-10 18:12:30,1393492
2025-09-10 18:12:30,1393557
2025-09-10 18:12:30,1393672
2025-09-10 18:12:30,1393737
2025-09-10 18:12:30,1393923
2025-09-10 18:12:30,1393983
2025-09-10 18:12:30,1394107
2025-09-10 18:12:30,1394260
2025-09-10 18:12:30,1394371
2025-09-10 18:12:30,1394481
2025-09-10 18:12:30,1394656
2025-09-10 18:12:30,1394771
2025-09-10 18:12:30,1394924
2025-09-10 18:12:30,1394923
2025-09-10 18:12:30,1394956
2025-09-10 18:12:30,1394774
2025-09-10 18:12:30,1394349
2025-09-10 18:12:30,1393544
2025-09-10 18:12:30,1392760
2025-09-10 18:12:30,1392072
2025-09-10 18:12:30,1391345
2025-09-10 18:12:30,1390909
2025-09-10 18:12:30,1390541
2025-09-10 18:12:30,1390243
2025-09-10 18:12:30,1389945
2025-09-10 18:12:30,1389842
2025-09-10 18:12:30,1389747
2025-09-10 18:12:30,1389575
2025-09-10 18:12:30,1389663
2025-09-10 18:12:30,1389542
2025-09-10 18:12:30,1389546
2025-09-10 18:12:30,1389554
2025-09-10 18:12:30,1389494
2025-09-10 18:12:30,1389528
2025-09-10 18:12:30,1389491
2025-09-10 18:12:30,1389499
2025-09-10 18:12:30,1389445
2025-09-10 18:12:30,1389554
2025-09-10 18:12:30,1389495
2025-09-10 18:12:30,1389463
2025-09-10 18:12:30,1389560
2025-09-10 18:12:30,1389601
2025-09-10 18:12:30,1389636
2025-09-10 18:12:30,1389812
2025-09-10 18:12:30,1389798
2025-09-10 18:12:30,1389924
2025-09-10 18:12:30,1389999
2025-09-10 18:12:30,1390100
2025-09-10 18:12:30,1390303
2025-09-10 18:12:30,1390343
2025-09-10 18:12:30,1390341
2025-09-10 18:12:30,1390374
2025-09-10 18:12:30,1390425
2025-09-10 18:12:30,1390437
2025-09-10 18:12:30,1390423
2025-09-10 18:12:30,1390417
2025-09-10 18:12:30,1390395
2025-09-10 18:12:30,1390367
2025-09-10 18:12:30,1390358
2025-09-10 18:12:30,1390398
2025-09-10 18:12:30,1390454
2025-09-10 18:12:30,1390525
2025-09-10 18:12:30,1390571
2025-09-10 18:12:30,1390607
2025-09-10 18:12:30,1390739
2025-09-10 18:12:30,1390698
2025-09-10 18:12:30,1390947
2025-09-10 18:12:30,1391023
2025-09-10 18:12:31,1391138
2025-09-10 18:12:31,1391263
2025-09-10 18:12:31,1391431
2025-09-10 18:12:31,1391495
2025-09-10 18:12:31,1391598
2025-09-10 18:12:31,1391695
2025-09-10 18:12:31,1391842
2025-09-10 18:12:31,1391946
2025-09-10 18:12:31,1392067
2025-09-10 18:12:31,1392261
2025-09-10 18:12:31,1392384
2025-09-10 18:12:31,1392481
2025-09-10 18:12:31,1392657
2025-09-10 18:12:31,1392767
2025-09-10 18:12:31,1392947
2025-09-10 18:12:31,1393046
2025-09-10 18:12:31,1393209
2025-09-10 18:12:31,1393376
2025-09-10 18:12:31,1393533
2025-09-10 18:12:31,1393632
2025-09-10 18:12:31,1393805
2025-09-10 18:12:31,1393867
2025-09-10 18:12:31,1393856
2025-09-10 18:12:31,1393721
2025-09-10 18:12:31,1393185
2025-09-10 18:12:31,1392492
2025-09-10 18:12:31,1391794
2025-09-10 18:12:31,1391019
2025-09-10 18:12:31,1390474
2025-09-10 18:12:31,1390020
2025-09-10 18:12:31,1389603
2025-09-10 18:12:31,1389339
2025-09-10 18:12:31,1389156
2025-09-10 18:12:31,1389017
2025-09-10 18:12:31,1388860
2025-09-10 18:12:31,1388868
2025-09-10 18:12:31,1388792
2025-09-10 18:12:31,1388791
2025-09-10 18:12:31,1388769
2025-09-10 18:12:31,1388860
2025-09-10 18:12:31,1388795
2025-09-10 18:12:31,1388827
2025-09-10 18:12:31,1388840
2025-09-10 18:12:31,1388861
2025-09-10 18:12:31,1388894
2025-09-10 18:12:31,1388902
2025-09-10 18:12:31,1388946
2025-09-10 18:12:31,1388921
2025-09-10 18:12:31,1389084
2025-09-10 18:12:31,1389058
2025-09-10 18:12:31,1389175
2025-09-10 18:12:31,1389290
2025-09-10 18:12:31,1389404
2025-09-10 18:12:31,1389513
2025-09-10 18:12:31,1389598
2025-09-10 18:12:31,1389690
2025-09-10 18:12:31,1389841
2025-09-10 18:12:31,1389859
2025-09-10 18:12:31,1389941
2025-09-10 18:12:31,1389957
2025-09-10 18:12:31,1389964
2025-09-10 18:12:31,1389942
2025-09-10 18:12:31,1389923
2025-09-10 18:12:31,1389903
2025-09-10 18:12:31,1389899
2025-09-10 18:12:31,1389938
2025-09-10 18:12:31,1390019
2025-09-10 18:12:31,1389950
2025-09-10 18:12:31,1390058
2025-09-10 18:12:31,1390156
2025-09-10 18:12:31,1390293
2025-09-10 18:12:31,1390334
2025-09-10 18:12:31,1390369
2025-09-10 18:12:31,1390479
2025-09-10 18:12:31,1390656
2025-09-10 18:12:31,1390765
2025-09-10 18:12:31,1390789
2025-09-10 18:12:31,1390983
2025-09-10 18:12:31,1391069
2025-09-10 18:12:31,1391273
2025-09-10 18:12:31,1391259
2025-09-10 18:12:31,1391482
2025-09-10 18:12:31,1391521
2025-09-10 18:12:31,1391720
2025-09-10 18:12:31,1391787
2025-09-10 18:12:31,1391899
2025-09-10 18:12:31,1392030
2025-09-10 18:12:31,1392127
2025-09-10 18:12:31,1392238
2025-09-10 18:12:31,1392372
2025-09-10 18:12:31,1392459
2025-09-10 18:12:31,1392594
2025-09-10 18:12:31,1392747
2025-09-10 18:12:31,1392916
2025-09-10 18:12:31,1393001
2025-09-10 18:12:31,1393153
2025-09-10 18:12:31,1393175
2025-09-10 18:12:31,1393258
2025-09-10 18:12:31,1393177
2025-09-10 18:12:31,1392768
2025-09-10 18:12:32,1392098
2025-09-10 18:12:32,1391281
2025-09-10 18:12:32,1390493
2025-09-10 18:12:32,1389922
2025-09-10 18:12:32,1389458
2025-09-10 18:12:32,1389113
2025-09-10 18:12:32,1388743
2025-09-10 18:12:32,1388501
2025-09-10 18:12:32,1388412
2025-09-10 18:12:32,1388297
2025-09-10 18:12:32,1388215
2025-09-10 18:12:32,1388153
2025-09-10 18:12:32,1388260
2025-09-10 18:12:32,1388235
2025-09-10 18:12:32,1388226
2025-09-10 18:12:32,1388206
2025-09-10 18:12:32,1388286
2025-09-10 18:12:32,1388258
2025-09-10 18:12:32,1388368
2025-09-10 18:12:32,1388251
2025-09-10 18:12:32,1388285
2025-09-10 18:12:32,1388386
2025-09-10 18:12:32,1388421
2025-09-10 18:12:32,1388570
2025-09-10 18:12:32,1388528
2025-09-10 18:12:32,1388687
2025-09-10 18:12:32,1388818
2025-09-10 18:12:32,1388877
2025-09-10 18:12:32,1388991
2025-09-10 18:12:32,1389100
2025-09-10 18:12:32,1389182
2025-09-10 18:12:32,1389225
2025-09-10 18:12:32,1389351
2025-09-10 18:12:32,1389332
2025-09-10 18:12:32,1389274
2025-09-10 18:12:32,1389222
2025-09-10 18:12:32,1389239
2025-09-10 18:12:32,1389204
2025-09-10 18:12:32,1389135
2025-09-10 18:12:32,1389174
2025-09-10 18:12:32,1389097
2025-09-10 18:12:32,1389198
2025-09-10 18:12:32,1389260
2025-09-10 18:12:32,1389255
2025-09-10 18:12:32,1389360
2025-09-10 18:12:32,1389460
2025-09-10 18:12:32,1389516
2025-09-10 18:12:32,1389593
2025-09-10 18:12:32,1389692
2025-09-10 18:12:32,1389812
2025-09-10 18:12:32,1389843
2025-09-10 18:12:32,1389994
2025-09-10 18:12:32,1390144
2025-09-10 18:12:32,1390222
2025-09-10 18:12:32,1390383
2025-09-10 18:12:32,1390487
2025-09-10 18:12:32,1390574
2025-09-10 18:12:32,1390691
2025-09-10 18:12:32,1390794
2025-09-10 18:12:32,1390861
2025-09-10 18:12:32,1390951
2025-09-10 18:12:32,1391095
2025-09-10 18:12:32,1391277
2025-09-10 18:12:32,1391308
2025-09-10 18:12:32,1391439
2025-09-10 18:12:32,1391628
2025-09-10 18:12:32,1391685
2025-09-10 18:12:32,1391801
2025-09-10 18:12:32,1391950
2025-09-10 18:12:32,1392034
2025-09-10 18:12:32,1392225
2025-09-10 18:12:32,1392394
2025-09-10 18:12:32,1392410
2025-09-10 18:12:32,1392512
2025-09-10 18:12:32,1392469
2025-09-10 18:12:32,1392073
2025-09-10 18:12:32,1391517
2025-09-10 18:12:32,1390677
2025-09-10 18:12:32,1389834
2025-09-10 18:12:32,1389290
2025-09-10 18:12:32,1388668
2025-09-10 18:12:32,1388267
2025-09-10 18:12:32,1387882
2025-09-10 18:12:32,1387649
2025-09-10 18:12:32,1387460
2025-09-10 18:12:32,1387350
2025-09-10 18:12:32,1387241
2025-09-10 18:12:32,1387252
2025-09-10 18:12:32,1387164
2025-09-10 18:12:32,1387103
2025-09-10 18:12:32,1387129
2025-09-10 18:12:32,1387110
2025-09-10 18:12:32,1387000
2025-09-10 18:12:32,1387085
2025-09-10 18:12:32,1386969
2025-09-10 18:12:32,1387057
2025-09-10 18:12:32,1387044
2025-09-10 18:12:32,1387058
2025-09-10 18:12:32,1387087
2025-09-10 18:12:32,1387104
2025-09-10 18:12:33,1387188
2025-09-10 18:12:33,1387169
2025-09-10 18:12:33,1387280
2025-09-10 18:12:33,1387408
2025-09-10 18:12:33,1387405
2025-09-10 18:12:33,1387583
2025-09-10 18:12:33,1387637
2025-09-10 18:12:33,1387693
2025-09-10 18:12:33,1387832
2025-09-10 18:12:33,1387923
2025-09-10 18:12:33,1387968
2025-09-10 18:12:33,1387947
2025-09-10 18:12:33,1387882
2025-09-10 18:12:33,1387966
2025-09-10 18:12:33,1387981
2025-09-10 18:12:33,1387887
2025-09-10 18:12:33,1387880
2025-09-10 18:12:33,1387968
2025-09-10 18:12:33,1388008
2025-09-10 18:12:33,1387988
2025-09-10 18:12:33,1388062
2025-09-10 18:12:33,1388147
2025-09-10 18:12:33,1388229
2025-09-10 18:12:33,1388335
2025-09-10 18:12:33,1388437
2025-09-10 18:12:33,1388508
2025-09-10 18:12:33,1388540
2025-09-10 18:12:33,1388709
2025-09-10 18:12:33,1388820
2025-09-10 18:12:33,1388954
2025-09-10 18:12:33,1389073
2025-09-10 18:12:33,1389182
2025-09-10 18:12:33,1389287
2025-09-10 18:12:33,1389339
2025-09-10 18:12:33,1389504
2025-09-10 18:12:33,1389589
2025-09-10 18:12:33,1389751
2025-09-10 18:12:33,1389882
2025-09-10 18:12:33,1390055
2025-09-10 18:12:33,1390156
2025-09-10 18:12:33,1390293
2025-09-10 18:12:33,1390388
2025-09-10 18:12:33,1390532
2025-09-10 18:12:33,1390687
2025-09-10 18:12:33,1390816
2025-09-10 18:12:33,1390922
2025-09-10 18:12:33,1391028
2025-09-10 18:12:33,1391168
2025-09-10 18:12:33,1391297
2025-09-10 18:12:33,1391401
2025-09-10 18:12:33,1391556
2025-09-10 18:12:33,1391720
2025-09-10 18:12:33,1391793
2025-09-10 18:12:33,1391890
2025-09-10 18:12:33,1392087
2025-09-10 18:12:33,1392181
2025-09-10 18:12:33,1392317
2025-09-10 18:12:33,1392367
2025-09-10 18:12:33,1392190
2025-09-10 18:12:33,1391813
2025-09-10 18:12:33,1390979
2025-09-10 18:12:33,1390159
2025-09-10 18:12:33,1389370
2025-09-10 18:12:33,1388743
2025-09-10 18:12:33,1388262
2025-09-10 18:12:33,1387850
2025-09-10 18:12:33,1387530
2025-09-10 18:12:33,1387326
2025-09-10 18:12:33,1387179
2025-09-10 18:12:33,1387065
2025-09-10 18:12:33,1386962
2025-09-10 18:12:33,1386965
2025-09-10 18:12:33,1386944
2025-09-10 18:12:33,1386842
2025-09-10 18:12:33,1386968
2025-09-10 18:12:33,1386928
2025-09-10 18:12:33,1386919
2025-09-10 18:12:33,1386961
2025-09-10 18:12:33,1386927
2025-09-10 18:12:33,1386926
2025-09-10 18:12:33,1386937
2025-09-10 18:12:33,1386968
2025-09-10 18:12:33,1386996
2025-09-10 18:12:33,1386956
2025-09-10 18:12:33,1386971
2025-09-10 18:12:33,1387143
2025-09-10 18:12:33,1387234
2025-09-10 18:12:33,1387336
2025-09-10 18:12:33,1387424
2025-09-10 18:12:33,1387467
2025-09-10 18:12:33,1387640
2025-09-10 18:12:33,1387662
2025-09-10 18:12:33,1387814
2025-09-10 18:12:33,1387825
2025-09-10 18:12:33,1387816
2025-09-10 18:12:33,1387902
2025-09-10 18:12:33,1387939
2025-09-10 18:12:33,1387874
2025-09-10 18:12:33,1387825
2025-09-10 18:12:33,1387847
2025-09-10 18:12:34,1387923
2025-09-10 18:12:34,1387910
2025-09-10 18:12:34,1387923
2025-09-10 18:12:34,1387907
2025-09-10 18:12:34,1388009
2025-09-10 18:12:34,1388112
2025-09-10 18:12:34,1388238
2025-09-10 18:12:34,1388275
2025-09-10 18:12:34,1388389
2025-09-10 18:12:34,1388455
2025-09-10 18:12:34,1388592
2025-09-10 18:12:34,1388638
2025-09-10 18:12:34,1388772
2025-09-10 18:12:34,1388912
2025-09-10 18:12:34,1389012
2025-09-10 18:12:34,1389108
2025-09-10 18:12:34,1389319
2025-09-10 18:12:34,1389442
2025-09-10 18:12:34,1389530
2025-09-10 18:12:34,1389735
2025-09-10 18:12:34,1389838
2025-09-10 18:12:34,1389942
2025-09-10 18:12:34,1390095
2025-09-10 18:12:34,1390175
2025-09-10 18:12:34,1390336
2025-09-10 18:12:34,1390481
2025-09-10 18:12:34,1390549
2025-09-10 18:12:34,1390735
2025-09-10 18:12:34,1390793
2025-09-10 18:12:34,1390913
2025-09-10 18:12:34,1391145
2025-09-10 18:12:34,1391230
2025-09-10 18:12:34,1391322
2025-09-10 18:12:34,1391466
2025-09-10 18:12:34,1391578
2025-09-10 18:12:34,1391728
2025-09-10 18:12:34,1391836
2025-09-10 18:12:34,1392001
2025-09-10 18:12:34,1392129
2025-09-10 18:12:34,1392257
2025-09-10 18:12:34,1392407
2025-09-10 18:12:34,1392386
2025-09-10 18:12:34,1392362
2025-09-10 18:12:34,1391993
2025-09-10 18:12:34,1391362
2025-09-10 18:12:34,1390594
2025-09-10 18:12:34,1389786
2025-09-10 18:12:34,1389024
2025-09-10 18:12:34,1388486
2025-09-10 18:12:34,1388112
2025-09-10 18:12:34,1387708
2025-09-10 18:12:34,1387476
2025-09-10 18:12:34,1387280
2025-09-10 18:12:34,1387165
2025-09-10 18:12:34,1387173
2025-09-10 18:12:34,1387103
2025-09-10 18:12:34,1387089
2025-09-10 18:12:34,1387107
2025-09-10 18:12:34,1387125
2025-09-10 18:12:34,1387127
2025-09-10 18:12:34,1387176
2025-09-10 18:12:34,1387179
2025-09-10 18:12:34,1387200
2025-09-10 18:12:34,1387178
2025-09-10 18:12:34,1387281
2025-09-10 18:12:34,1387369
2025-09-10 18:12:34,1387371
2025-09-10 18:12:34,1387478
2025-09-10 18:12:34,1387573
2025-09-10 18:12:34,1387610
2025-09-10 18:12:34,1387714
2025-09-10 18:12:34,1387770
2025-09-10 18:12:34,1387992
2025-09-10 18:12:34,1388013
2025-09-10 18:12:34,1388081
2025-09-10 18:12:34,1388202
2025-09-10 18:12:34,1388238
2025-09-10 18:12:34,1388267
2025-09-10 18:12:34,1388209
2025-09-10 18:12:34,1388211
2025-09-10 18:12:34,1388230
2025-09-10 18:12:34,1388160
2025-09-10 18:12:34,1388164
2025-09-10 18:12:34,1388095
2025-09-10 18:12:34,1388152
2025-09-10 18:12:34,1388166
2025-09-10 18:12:34,1388148
2025-09-10 18:12:34,1388241
2025-09-10 18:12:34,1388296
2025-09-10 18:12:34,1388328
2025-09-10 18:12:34,1388416
2025-09-10 18:12:34,1388476
2025-09-10 18:12:34,1388653
2025-09-10 18:12:34,1388667
2025-09-10 18:12:34,1388739
2025-09-10 18:12:34,1388898
2025-09-10 18:12:34,1388953
2025-09-10 18:12:34,1389051
2025-09-10 18:12:34,1389183
2025-09-10 18:12:34,1389296
2025-09-10 18:12:35,1389453
2025-09-10 18:12:35,1389549
2025-09-10 18:12:35,1389649
2025-09-10 18:12:35,1389739
2025-09-10 18:12:35,1389906
2025-09-10 18:12:35,1390048
2025-09-10 18:12:35,1390121
2025-09-10 18:12:35,1390214
2025-09-10 18:12:35,1390365
2025-09-10 18:12:35,1390482
2025-09-10 18:12:35,1390622
2025-09-10 18:12:35,1390678
2025-09-10 18:12:35,1390831
2025-09-10 18:12:35,1390930
2025-09-10 18:12:35,1391098
2025-09-10 18:12:35,1391169
2025-09-10 18:12:35,1391247
2025-09-10 18:12:35,1391403
2025-09-10 18:12:35,1391496
2025-09-10 18:12:35,1391650
2025-09-10 18:12:35,1391769
2025-09-10 18:12:35,1391892
2025-09-10 18:12:35,1392000
2025-09-10 18:12:35,1392124
2025-09-10 18:12:35,1391976
2025-09-10 18:12:35,1391685
2025-09-10 18:12:35,1390948
2025-09-10 18:12:35,1390154
2025-09-10 18:12:35,1389393
2025-09-10 18:12:35,1388747
2025-09-10 18:12:35,1388144
2025-09-10 18:12:35,1387758
2025-09-10 18:12:35,1387429
2025-09-10 18:12:35,1387170
2025-09-10 18:12:35,1386955
2025-09-10 18:12:35,1386871
2025-09-10 18:12:35,1386824
2025-09-10 18:12:35,1386728
2025-09-10 18:12:35,1386720
2025-09-10 18:12:35,1386693
2025-09-10 18:12:35,1386710
2025-09-10 18:12:35,1386708
2025-09-10 18:12:35,1386686
2025-09-10 18:12:35,1386744
2025-09-10 18:12:35,1386748
2025-09-10 18:12:35,1386706
2025-09-10 18:12:35,1386758
2025-09-10 18:12:35,1386730
2025-09-10 18:12:35,1386836
2025-09-10 18:12:35,1386856
2025-09-10 18:12:35,1386865
2025-09-10 18:12:35,1386961
2025-09-10 18:12:35,1387030
2025-09-10 18:12:35,1387117
2025-09-10 18:12:35,1387193
2025-09-10 18:12:35,1387291
2025-09-10 18:12:35,1387486
2025-09-10 18:12:35,1387498
2025-09-10 18:12:35,1387543
2025-09-10 18:12:35,1387691
2025-09-10 18:12:35,1387765
2025-09-10 18:12:35,1387728
2025-09-10 18:12:35,1387749
2025-09-10 18:12:35,1387775
2025-09-10 18:12:35,1387718
2025-09-10 18:12:35,1387754
2025-09-10 18:12:35,1387800
2025-09-10 18:12:35,1387718
2025-09-10 18:12:35,1387849
2025-09-10 18:12:35,1387808
2025-09-10 18:12:35,1387794
2025-09-10 18:12:35,1387898
2025-09-10 18:12:35,1388047
2025-09-10 18:12:35,1388060
2025-09-10 18:12:35,1388217
2025-09-10 18:12:35,1388342
2025-09-10 18:12:35,1388429
2025-09-10 18:12:35,1388570
2025-09-10 18:12:35,1388693
2025-09-10 18:12:35,1388795
2025-09-10 18:12:35,1388890
2025-09-10 18:12:35,1389014
2025-09-10 18:12:35,1389154
2025-09-10 18:12:35,1389298
2025-09-10 18:12:35,1389380
2025-09-10 18:12:35,1389585
2025-09-10 18:12:35,1389620
2025-09-10 18:12:35,1389809
2025-09-10 18:12:35,1389979
2025-09-10 18:12:35,1390045
2025-09-10 18:12:35,1390220
2025-09-10 18:12:35,1390340
2025-09-10 18:12:35,1390577
2025-09-10 18:12:35,1390681
2025-09-10 18:12:35,1390823
2025-09-10 18:12:35,1390961
2025-09-10 18:12:35,1391140
2025-09-10 18:12:35,1391248
2025-09-10 18:12:35,1391392
2025-09-10 18:12:35,1391537
2025-09-10 18:12:36,1391654
2025-09-10 18:12:36,1391779
2025-09-10 18:12:36,1391956
2025-09-10 18:12:36,1392081
2025-09-10 18:12:36,1392188
2025-09-10 18:12:36,1392295
2025-09-10 18:12:36,1392471
2025-09-10 18:12:36,1392645
2025-09-10 18:12:36,1392767
2025-09-10 18:12:36,1392864
2025-09-10 18:12:36,1392929
2025-09-10 18:12:36,1393096
2025-09-10 18:12:36,1393294
2025-09-10 18:12:36,1393394
2025-09-10 18:12:36,1393444
2025-09-10 18:12:36,1393545
2025-09-10 18:12:36,1393394
2025-09-10 18:12:36,1393058
2025-09-10 18:12:36,1392329
2025-09-10 18:12:36,1391419
2025-09-10 18:12:36,1390583
2025-09-10 18:12:36,1389864
2025-09-10 18:12:36,1389301
2025-09-10 18:12:36,1388884
2025-09-10 18:12:36,1388613
2025-09-10 18:12:36,1388350
2025-09-10 18:12:36,1388224
2025-09-10 18:12:36,1388010
2025-09-10 18:12:36,1387988
2025-09-10 18:12:36,1387989
2025-09-10 18:12:36,1388006
2025-09-10 18:12:36,1387959
2025-09-10 18:12:36,1387984
2025-09-10 18:12:36,1388002
2025-09-10 18:12:36,1388075
2025-09-10 18:12:36,1388128
2025-09-10 18:12:36,1388155
2025-09-10 18:12:36,1388136
2025-09-10 18:12:36,1388272
2025-09-10 18:12:36,1388247
2025-09-10 18:12:36,1388309
2025-09-10 18:12:36,1388320
2025-09-10 18:12:36,1388459
2025-09-10 18:12:36,1388482
2025-09-10 18:12:36,1388689
2025-09-10 18:12:36,1388837
2025-09-10 18:12:36,1388921
2025-09-10 18:12:36,1389147
2025-09-10 18:12:36,1389165
2025-09-10 18:12:36,1389183
2025-09-10 18:12:36,1389297
2025-09-10 18:12:36,1389433
2025-09-10 18:12:36,1389495
2025-09-10 18:12:36,1389407
2025-09-10 18:12:36,1389458
2025-09-10 18:12:36,1389467
2025-09-10 18:12:36,1389439
2025-09-10 18:12:36,1389375
2025-09-10 18:12:36,1389336
2025-09-10 18:12:36,1389386
2025-09-10 18:12:36,1389384
2025-09-10 18:12:36,1389444
2025-09-10 18:12:36,1389536
2025-09-10 18:12:36,1389601
2025-09-10 18:12:36,1389697
2025-09-10 18:12:36,1389745
2025-09-10 18:12:36,1389846
2025-09-10 18:12:36,1389937
2025-09-10 18:12:36,1390019
2025-09-10 18:12:36,1390105
2025-09-10 18:12:36,1390287
2025-09-10 18:12:36,1390322
2025-09-10 18:12:36,1390462
2025-09-10 18:12:36,1390595
2025-09-10 18:12:36,1390735
2025-09-10 18:12:36,1390789
2025-09-10 18:12:36,1390960
2025-09-10 18:12:36,1391050
2025-09-10 18:12:36,1391184
2025-09-10 18:12:36,1391246
2025-09-10 18:12:36,1391391
2025-09-10 18:12:36,1391455
2025-09-10 18:12:36,1391647
2025-09-10 18:12:36,1391775
2025-09-10 18:12:36,1391783
2025-09-10 18:12:36,1391963
2025-09-10 18:12:36,1391985
2025-09-10 18:12:36,1392179
2025-09-10 18:12:36,1392168
2025-09-10 18:12:36,1392314
2025-09-10 18:12:36,1392399
2025-09-10 18:12:36,1392563
2025-09-10 18:12:36,1392715
2025-09-10 18:12:36,1392768
2025-09-10 18:12:36,1392908
2025-09-10 18:12:36,1393016
2025-09-10 18:12:36,1393108
2025-09-10 18:12:36,1393222
2025-09-10 18:12:36,1393131
2025-09-10 18:12:36,1392851
2025-09-10 18:12:37,1392193
2025-09-10 18:12:37,1391492
2025-09-10 18:12:37,1390640
2025-09-10 18:12:37,1390002
2025-09-10 18:12:37,1389498
2025-09-10 18:12:37,1389048
2025-09-10 18:12:37,1388666
2025-09-10 18:12:37,1388451
2025-09-10 18:12:37,1388240
2025-09-10 18:12:37,1388168
2025-09-10 18:12:37,1388045
2025-09-10 18:12:37,1388112
2025-09-10 18:12:37,1387975
2025-09-10 18:12:37,1388031
2025-09-10 18:12:37,1388128
2025-09-10 18:12:37,1387989
2025-09-10 18:12:37,1388123
2025-09-10 18:12:37,1388162
2025-09-10 18:12:37,1388177
2025-09-10 18:12:37,1388241
2025-09-10 18:12:37,1388234
2025-09-10 18:12:37,1388302
2025-09-10 18:12:37,1388343
2025-09-10 18:12:37,1388442
2025-09-10 18:12:37,1388482
2025-09-10 18:12:37,1388601
2025-09-10 18:12:37,1388654
2025-09-10 18:12:37,1388759
2025-09-10 18:12:37,1388918
2025-09-10 18:12:37,1389031
2025-09-10 18:12:37,1389136
2025-09-10 18:12:37,1389113
2025-09-10 18:12:37,1389312
2025-09-10 18:12:37,1389320
2025-09-10 18:12:37,1389303
2025-09-10 18:12:37,1389263
2025-09-10 18:12:37,1389293
2025-09-10 18:12:37,1389203
2025-09-10 18:12:37,1389194
2025-09-10 18:12:37,1389227
2025-09-10 18:12:37,1389176
2025-09-10 18:12:37,1389235
2025-09-10 18:12:37,1389318
2025-09-10 18:12:37,1389305
2025-09-10 18:12:37,1389367
2025-09-10 18:12:37,1389425
2025-09-10 18:12:37,1389497
2025-09-10 18:12:37,1389548
2025-09-10 18:12:37,1389708
2025-09-10 18:12:37,1389798
2025-09-10 18:12:37,1389835
2025-09-10 18:12:37,1389936
2025-09-10 18:12:37,1390025
2025-09-10 18:12:37,1390092
2025-09-10 18:12:37,1390278
2025-09-10 18:12:37,1390380
2025-09-10 18:12:37,1390450
2025-09-10 18:12:37,1390597
2025-09-10 18:12:37,1390774
2025-09-10 18:12:37,1390791
2025-09-10 18:12:37,1390967
2025-09-10 18:12:37,1391023
2025-09-10 18:12:37,1391169
2025-09-10 18:12:37,1391293
2025-09-10 18:12:37,1391401
2025-09-10 18:12:37,1391542
2025-09-10 18:12:37,1391670
2025-09-10 18:12:37,1391785
2025-09-10 18:12:37,1391924
2025-09-10 18:12:37,1391971
2025-09-10 18:12:37,1392143
2025-09-10 18:12:37,1392274
2025-09-10 18:12:37,1392244
2025-09-10 18:12:37,1392444
2025-09-10 18:12:37,1392582
2025-09-10 18:12:37,1392644
2025-09-10 18:12:37,1392781
2025-09-10 18:12:37,1393006
2025-09-10 18:12:37,1393079
2025-09-10 18:12:37,1393061
2025-09-10 18:12:37,1393030
2025-09-10 18:12:37,1392884
2025-09-10 18:12:37,1392393
2025-09-10 18:12:37,1391555
2025-09-10 18:12:37,1390791
2025-09-10 18:12:37,1389991
2025-09-10 18:12:37,1389392
2025-09-10 18:12:37,1388898
2025-09-10 18:12:37,1388476
2025-09-10 18:12:37,1388121
2025-09-10 18:12:37,1387937
2025-09-10 18:12:37,1387805
2025-09-10 18:12:37,1387649
2025-09-10 18:12:37,1387602
2025-09-10 18:12:37,1387516
2025-09-10 18:12:37,1387537
2025-09-10 18:12:37,1387495
2025-09-10 18:12:37,1387562
2025-09-10 18:12:37,1387466
2025-09-10 18:12:37,1387488
2025-09-10 18:12:38,1387483
2025-09-10 18:12:38,1387404
2025-09-10 18:12:38,1387533
2025-09-10 18:12:38,1387531
2025-09-10 18:12:38,1387457
2025-09-10 18:12:38,1387556
2025-09-10 18:12:38,1387502
2025-09-10 18:12:38,1387583
2025-09-10 18:12:38,1387646
2025-09-10 18:12:38,1387704
2025-09-10 18:12:38,1387854
2025-09-10 18:12:38,1387943
2025-09-10 18:12:38,1388070
2025-09-10 18:12:38,1388135
2025-09-10 18:12:38,1388248
2025-09-10 18:12:38,1388287
2025-09-10 18:12:38,1388368
2025-09-10 18:12:38,1388417
2025-09-10 18:12:38,1388486
2025-09-10 18:12:38,1388523
2025-09-10 18:12:38,1388515
2025-09-10 18:12:38,1388447
2025-09-10 18:12:38,1388568
2025-09-10 18:12:38,1388508
2025-09-10 18:12:38,1388497
2025-09-10 18:12:38,1388577
2025-09-10 18:12:38,1388669
2025-09-10 18:12:38,1388620
2025-09-10 18:12:38,1388671
2025-09-10 18:12:38,1388747
2025-09-10 18:12:38,1388904
2025-09-10 18:12:38,1388984
2025-09-10 18:12:38,1389064
2025-09-10 18:12:38,1389237
2025-09-10 18:12:38,1389399
2025-09-10 18:12:38,1389396
2025-09-10 18:12:38,1389512
2025-09-10 18:12:38,1389635
2025-09-10 18:12:38,1389806
2025-09-10 18:12:38,1389932
2025-09-10 18:12:38,1390055
2025-09-10 18:12:38,1390143
2025-09-10 18:12:38,1390307
2025-09-10 18:12:38,1390446
2025-09-10 18:12:38,1390484
2025-09-10 18:12:38,1390693
2025-09-10 18:12:38,1390785
2025-09-10 18:12:38,1390920
2025-09-10 18:12:38,1391072
2025-09-10 18:12:38,1391173
2025-09-10 18:12:38,1391343
2025-09-10 18:12:38,1391441
2025-09-10 18:12:38,1391549
2025-09-10 18:12:38,1391736
2025-09-10 18:12:38,1391881
2025-09-10 18:12:38,1392063
2025-09-10 18:12:38,1392156
2025-09-10 18:12:38,1392310
2025-09-10 18:12:38,1392387
2025-09-10 18:12:38,1392529
2025-09-10 18:12:38,1392583
2025-09-10 18:12:38,1392799
2025-09-10 18:12:38,1392906
2025-09-10 18:12:38,1393009
2025-09-10 18:12:38,1393175
2025-09-10 18:12:38,1393227
2025-09-10 18:12:38,1393423
2025-09-10 18:12:38,1393521
2025-09-10 18:12:38,1393557
2025-09-10 18:12:38,1393811
2025-09-10 18:12:38,1393892
2025-09-10 18:12:38,1394055
2025-09-10 18:12:38,1394227
2025-09-10 18:12:38,1394200
2025-09-10 18:12:38,1394127
2025-09-10 18:12:38,1393896
2025-09-10 18:12:38,1393328
2025-09-10 18:12:38,1392352
2025-09-10 18:12:38,1391434
2025-09-10 18:12:38,1390722
2025-09-10 18:12:38,1390118
2025-09-10 18:12:38,1389581
2025-09-10 18:12:38,1389202
2025-09-10 18:12:38,1388919
2025-09-10 18:12:38,1388753
2025-09-10 18:12:38,1388630
2025-09-10 18:12:38,1388601
2025-09-10 18:12:38,1388580
2025-09-10 18:12:38,1388600
2025-09-10 18:12:38,1388571
2025-09-10 18:12:38,1388532
2025-09-10 18:12:38,1388576
2025-09-10 18:12:38,1388613
2025-09-10 18:12:38,1388736
2025-09-10 18:12:38,1388779
2025-09-10 18:12:38,1388835
2025-09-10 18:12:38,1388833
2025-09-10 18:12:38,1388864
2025-09-10 18:12:38,1389030
2025-09-10 18:12:38,1389037
2025-09-10 18:12:39,1389123
2025-09-10 18:12:39,1389188
2025-09-10 18:12:39,1389279
2025-09-10 18:12:39,1389312
2025-09-10 18:12:39,1389443
2025-09-10 18:12:39,1389526
2025-09-10 18:12:39,1389661
2025-09-10 18:12:39,1389774
2025-09-10 18:12:39,1389843
2025-09-10 18:12:39,1389872
2025-09-10 18:12:39,1389911
2025-09-10 18:12:39,1389930
2025-09-10 18:12:39,1389846
2025-09-10 18:12:39,1389861
2025-09-10 18:12:39,1389835
2025-09-10 18:12:39,1389746
2025-09-10 18:12:39,1389699
2025-09-10 18:12:39,1389690
2025-09-10 18:12:39,1389721
2025-09-10 18:12:39,1389756
2025-09-10 18:12:39,1389826
2025-09-10 18:12:39,1389801
2025-09-10 18:12:39,1389957
2025-09-10 18:12:39,1389960
2025-09-10 18:12:39,1390019
2025-09-10 18:12:39,1390070
2025-09-10 18:12:39,1390161
2025-09-10 18:12:39,1390238
2025-09-10 18:12:39,1390376
2025-09-10 18:12:39,1390452
2025-09-10 18:12:39,1390503
2025-09-10 18:12:39,1390622
2025-09-10 18:12:39,1390748
2025-09-10 18:12:39,1390883
2025-09-10 18:12:39,1390928
2025-09-10 18:12:39,1391036
2025-09-10 18:12:39,1391137
2025-09-10 18:12:39,1391335
2025-09-10 18:12:39,1391412
2025-09-10 18:12:39,1391535
2025-09-10 18:12:39,1391611
2025-09-10 18:12:39,1391633
2025-09-10 18:12:39,1391761
2025-09-10 18:12:39,1391838
2025-09-10 18:12:39,1391984
2025-09-10 18:12:39,1392144
2025-09-10 18:12:39,1392277
2025-09-10 18:12:39,1392324
2025-09-10 18:12:34,1392379
2025-09-10 18:12:39,1392557
2025-09-10 18:12:39,1392646
2025-09-10 18:12:39,1392723
2025-09-10 18:12:39,1392913
2025-09-10 18:12:39,1392981
2025-09-10 18:12:39,1393053
2025-09-10 18:12:39,1393222
2025-09-10 18:12:39,1393256
2025-09-10 18:12:39,1393029
2025-09-10 18:12:39,1392713
2025-09-10 18:12:39,1391942
2025-09-10 18:12:39,1391151
2025-09-10 18:12:39,1390406
2025-09-10 18:12:39,1389740
2025-09-10 18:12:39,1389234
2025-09-10 18:12:39,1388828
2025-09-10 18:12:39,1388448
2025-09-10 18:12:39,1388192
2025-09-10 18:12:39,1388030
2025-09-10 18:12:39,1387973
2025-09-10 18:12:39,1387833
2025-09-10 18:12:39,1387827
2025-09-10 18:12:39,1387856
2025-09-10 18:12:39,1387880
2025-09-10 18:12:39,1387875
2025-09-10 18:12:39,1387846
2025-09-10 18:12:39,1387914
2025-09-10 18:12:39,1387913
2025-09-10 18:12:39,1387889
2025-09-10 18:12:39,1387945
2025-09-10 18:12:39,1387880
2025-09-10 18:12:39,1387990
2025-09-10 18:12:39,1387938
2025-09-10 18:12:39,1388077
2025-09-10 18:12:39,1388114
2025-09-10 18:12:39,1388246
2025-09-10 18:12:39,1388293
2025-09-10 18:12:39,1388393
2025-09-10 18:12:39,1388492
2025-09-10 18:12:39,1388610
2025-09-10 18:12:39,1388734
2025-09-10 18:12:39,1388752
2025-09-10 18:12:39,1388882
2025-09-10 18:12:39,1388923
2025-09-10 18:12:39,1388941
2025-09-10 18:12:39,1389007
2025-09-10 18:12:39,1388883
2025-09-10 18:12:39,1388909
2025-09-10 18:12:39,1388867
2025-09-10 18:12:39,1388875
2025-09-10 18:12:39,1388852
2025-09-10 18:12:40,1388920
2025-09-10 18:12:40,1388884
2025-09-10 18:12:40,1388977
2025-09-10 18:12:40,1388930
2025-09-10 18:12:40,1389051
2025-09-10 18:12:40,1389148
2025-09-10 18:12:40,1389213
2025-09-10 18:12:40,1389286
2025-09-10 18:12:40,1389426
2025-09-10 18:12:40,1389429
2025-09-10 18:12:40,1389625
2025-09-10 18:12:40,1389639
2025-09-10 18:12:40,1389735
2025-09-10 18:12:40,1389860
2025-09-10 18:12:40,1390037
2025-09-10 18:12:40,1390097
2025-09-10 18:12:40,1390235
2025-09-10 18:12:40,1390246
2025-09-10 18:12:40,1390429
2025-09-10 18:12:40,1390516
2025-09-10 18:12:40,1390665
2025-09-10 18:12:40,1390782
2025-09-10 18:12:40,1390892
2025-09-10 18:12:40,1390923
2025-09-10 18:12:40,1391108
2025-09-10 18:12:40,1391245
2025-09-10 18:12:40,1391357
2025-09-10 18:12:40,1391540
2025-09-10 18:12:40,1391598
2025-09-10 18:12:40,1391663
2025-09-10 18:12:40,1391874
2025-09-10 18:12:40,1391969
2025-09-10 18:12:40,1392099
2025-09-10 18:12:40,1392127
2025-09-10 18:12:40,1392264
2025-09-10 18:12:40,1392344
2025-09-10 18:12:40,1392533
2025-09-10 18:12:40,1392636
2025-09-10 18:12:40,1392744
2025-09-10 18:12:40,1392840
2025-09-10 18:12:40,1392928
2025-09-10 18:12:40,1393095
2025-09-10 18:12:40,1393257
2025-09-10 18:12:40,1393384
2025-09-10 18:12:40,1393405
2025-09-10 18:12:40,1393573
2025-09-10 18:12:40,1393613
2025-09-10 18:12:40,1393544
2025-09-10 18:12:40,1393160
2025-09-10 18:12:40,1392459
2025-09-10 18:12:40,1391546
2025-09-10 18:12:40,1390633
2025-09-10 18:12:40,1390000
2025-09-10 18:12:40,1389381
2025-09-10 18:12:40,1388957
2025-09-10 18:12:40,1388680
2025-09-10 18:12:40,1388398
2025-09-10 18:12:40,1388224
2025-09-10 18:12:40,1388058
2025-09-10 18:12:40,1388016
2025-09-10 18:12:40,1388010
2025-09-10 18:12:40,1388096
2025-09-10 18:12:40,1388033
2025-09-10 18:12:40,1388051
2025-09-10 18:12:40,1388020
2025-09-10 18:12:40,1388062
2025-09-10 18:12:40,1388102
2025-09-10 18:12:40,1388154
2025-09-10 18:12:40,1388142
2025-09-10 18:12:40,1388222
2025-09-10 18:12:40,1388287
2025-09-10 18:12:40,1388234
2025-09-10 18:12:40,1388324
2025-09-10 18:12:40,1388322
2025-09-10 18:12:40,1388423
2025-09-10 18:12:40,1388558
2025-09-10 18:12:40,1388654
2025-09-10 18:12:40,1388809
2025-09-10 18:12:40,1388839
2025-09-10 18:12:40,1388994
2025-09-10 18:12:40,1389200
2025-09-10 18:12:40,1389187
2025-09-10 18:12:40,1389233
2025-09-10 18:12:40,1389328
2025-09-10 18:12:40,1389354
2025-09-10 18:12:40,1389413
2025-09-10 18:12:40,1389404
2025-09-10 18:12:40,1389401
2025-09-10 18:12:40,1389296
2025-09-10 18:12:40,1389319
2025-09-10 18:12:40,1389353
2025-09-10 18:12:40,1389330
2025-09-10 18:12:40,1389428
2025-09-10 18:12:40,1389469
2025-09-10 18:12:40,1389518
2025-09-10 18:12:40,1389655
2025-09-10 18:12:40,1389706
2025-09-10 18:12:40,1389728
2025-09-10 18:12:40,1389822
2025-09-10 18:12:40,1389871
2025-09-10 18:12:40,1390023
2025-09-10 18:12:41,1390162
2025-09-10 18:12:41,1390254
2025-09-10 18:12:41,1390359
2025-09-10 18:12:41,1390457
2025-09-10 18:12:41,1390562
2025-09-10 18:12:41,1390755
2025-09-10 18:12:41,1390808
2025-09-10 18:12:41,1390956
2025-09-10 18:12:41,1391040
2025-09-10 18:12:41,1391220
2025-09-10 18:12:41,1391319
2025-09-10 18:12:41,1391390
2025-09-10 18:12:41,1391581
2025-09-10 18:12:41,1391615
2025-09-10 18:12:41,1391807
2025-09-10 18:12:41,1392006
2025-09-10 18:12:41,1392073
2025-09-10 18:12:41,1392216
2025-09-10 18:12:41,1392306
2025-09-10 18:12:41,1392479
2025-09-10 18:12:41,1392521
2025-09-10 18:12:41,1392672
2025-09-10 18:12:41,1392809
2025-09-10 18:12:41,1392914
2025-09-10 18:12:41,1393029
2025-09-10 18:12:41,1393088
2025-09-10 18:12:41,1393200
2025-09-10 18:12:41,1393344
2025-09-10 18:12:41,1393425
2025-09-10 18:12:41,1393505
2025-09-10 18:12:41,1393700
2025-09-10 18:12:41,1393826
2025-09-10 18:12:41,1393966
2025-09-10 18:12:41,1394041
2025-09-10 18:12:41,1394091
2025-09-10 18:12:41,1394076
2025-09-10 18:12:41,1393729
2025-09-10 18:12:41,1393208
2025-09-10 18:12:41,1392359
2025-09-10 18:12:41,1391519
2025-09-10 18:12:41,1390824
2025-09-10 18:12:41,1390220
2025-09-10 18:12:41,1389705
2025-09-10 18:12:41,1389372
2025-09-10 18:12:41,1389158
2025-09-10 18:12:41,1388950
2025-09-10 18:12:41,1388830
2025-09-10 18:12:41,1388825
2025-09-10 18:12:41,1388744
2025-09-10 18:12:41,1388735
2025-09-10 18:12:41,1388798
2025-09-10 18:12:41,1388798
2025-09-10 18:12:41,1388860
2025-09-10 18:12:41,1388950
2025-09-10 18:12:41,1388939
2025-09-10 18:12:41,1389063
2025-09-10 18:12:41,1389044
2025-09-10 18:12:41,1389134
2025-09-10 18:12:41,1389207
2025-09-10 18:12:41,1389226
2025-09-10 18:12:41,1389279
2025-09-10 18:12:41,1389399
2025-09-10 18:12:41,1389448
2025-09-10 18:12:41,1389594
2025-09-10 18:12:41,1389709
2025-09-10 18:12:41,1389784
2025-09-10 18:12:41,1389957
2025-09-10 18:12:41,1389987
2025-09-10 18:12:41,1390040
2025-09-10 18:12:41,1390196
2025-09-10 18:12:41,1390149
2025-09-10 18:12:41,1390186
2025-09-10 18:12:41,1390130
2025-09-10 18:12:41,1390229
2025-09-10 18:12:41,1390094
2025-09-10 18:12:41,1390094
2025-09-10 18:12:41,1390065
2025-09-10 18:12:41,1390062
2025-09-10 18:12:41,1390043
2025-09-10 18:12:41,1390017
2025-09-10 18:12:41,1390044
2025-09-10 18:12:41,1390082
2025-09-10 18:12:41,1390145
2025-09-10 18:12:41,1390233
2025-09-10 18:12:41,1390331
2025-09-10 18:12:41,1390388
2025-09-10 18:12:41,1390418
2025-09-10 18:12:41,1390517
2025-09-10 18:12:41,1390610
2025-09-10 18:12:41,1390731
2025-09-10 18:12:41,1390776
2025-09-10 18:12:41,1390930
2025-09-10 18:12:41,1391004
2025-09-10 18:12:41,1391079
2025-09-10 18:12:41,1391265
2025-09-10 18:12:41,1391387
2025-09-10 18:12:41,1391502
2025-09-10 18:12:41,1391473
2025-09-10 18:12:41,1391624
2025-09-10 18:12:42,1391788
2025-09-10 18:12:42,1391825
2025-09-10 18:12:42,1391966
2025-09-10 18:12:42,1392171
2025-09-10 18:12:42,1392269
2025-09-10 18:12:42,1392298
2025-09-10 18:12:42,1392424
2025-09-10 18:12:42,1392558
2025-09-10 18:12:42,1392669
2025-09-10 18:12:42,1392701
2025-09-10 18:12:42,1392821
2025-09-10 18:12:42,1393020
2025-09-10 18:12:42,1393000
2025-09-10 18:12:42,1393116
2025-09-10 18:12:42,1393275
2025-09-10 18:12:42,1393453
2025-09-10 18:12:42,1393466
2025-09-10 18:12:42,1393538
2025-09-10 18:12:42,1393535
2025-09-10 18:12:42,1393270
2025-09-10 18:12:42,1392749
2025-09-10 18:12:42,1391974
2025-09-10 18:12:42,1391079
2025-09-10 18:12:42,1390467
2025-09-10 18:12:42,1389867
2025-09-10 18:12:42,1389432
2025-09-10 18:12:42,1388903
2025-09-10 18:12:42,1388699
2025-09-10 18:12:42,1388533
2025-09-10 18:12:42,1388347
2025-09-10 18:12:42,1388295
2025-09-10 18:12:42,1388202
2025-09-10 18:12:42,1388188
2025-09-10 18:12:42,1388226
2025-09-10 18:12:42,1388165
2025-09-10 18:12:42,1388212
2025-09-10 18:12:42,1388173
2025-09-10 18:12:42,1388199
2025-09-10 18:12:42,1388220
2025-09-10 18:12:42,1388192
2025-09-10 18:12:42,1388203
2025-09-10 18:12:42,1388251
2025-09-10 18:12:42,1388196
2025-09-10 18:12:42,1388259
2025-09-10 18:12:42,1388254
2025-09-10 18:12:42,1388312
2025-09-10 18:12:42,1388393
2025-09-10 18:12:42,1388496
2025-09-10 18:12:42,1388593
2025-09-10 18:12:42,1388693
2025-09-10 18:12:42,1388684
2025-09-10 18:12:42,1388879
2025-09-10 18:12:42,1388953
2025-09-10 18:12:42,1388954
2025-09-10 18:12:42,1389065
2025-09-10 18:12:42,1389095
2025-09-10 18:12:42,1389083
2025-09-10 18:12:42,1389087
2025-09-10 18:12:42,1389003
2025-09-10 18:12:42,1389070
2025-09-10 18:12:42,1388984
2025-09-10 18:12:42,1389040
2025-09-10 18:12:42,1389084
2025-09-10 18:12:42,1389066
2025-09-10 18:12:42,1389113
2025-09-10 18:12:42,1389213
2025-09-10 18:12:42,1389231
2025-09-10 18:12:42,1389310
2025-09-10 18:12:42,1389351
2025-09-10 18:12:42,1389384
2025-09-10 18:12:42,1389465
2025-09-10 18:12:42,1389584
2025-09-10 18:12:42,1389610
2025-09-10 18:12:42,1389676
2025-09-10 18:12:42,1389797
2025-09-10 18:12:42,1389931
2025-09-10 18:12:42,1390016
2025-09-10 18:12:42,1390187
2025-09-10 18:12:42,1390317
2025-09-10 18:12:42,1390375
2025-09-10 18:12:42,1390597
2025-09-10 18:12:42,1390741
2025-09-10 18:12:42,1390815
2025-09-10 18:12:42,1390999
2025-09-10 18:12:42,1391148
2025-09-10 18:12:42,1391327
2025-09-10 18:12:42,1391369
2025-09-10 18:12:42,1391560
2025-09-10 18:12:42,1391679
2025-09-10 18:12:42,1391743
2025-09-10 18:12:42,1391939
2025-09-10 18:12:42,1392051
2025-09-10 18:12:42,1392232
2025-09-10 18:12:42,1392317
2025-09-10 18:12:42,1392420
2025-09-10 18:12:42,1392480
2025-09-10 18:12:42,1392723
2025-09-10 18:12:42,1392829
2025-09-10 18:12:42,1392863
2025-09-10 18:12:42,1393000
2025-09-10 18:12:43,1393117
2025-09-10 18:12:43,1393237
2025-09-10 18:12:43,1393306
2025-09-10 18:12:43,1393433
2025-09-10 18:12:43,1393527
2025-09-10 18:12:43,1393654
2025-09-10 18:12:43,1393735
2025-09-10 18:12:43,1393906
2025-09-10 18:12:43,1394008
2025-09-10 18:12:43,1394084
2025-09-10 18:12:43,1394213
2025-09-10 18:12:43,1394343
2025-09-10 18:12:43,1394289
2025-09-10 18:12:43,1393953
2025-09-10 18:12:43,1393353
2025-09-10 18:12:43,1392442
2025-09-10 18:12:43,1391556
2025-09-10 18:12:43,1390784
2025-09-10 18:12:43,1390178
2025-09-10 18:12:43,1389692
2025-09-10 18:12:43,1389271
2025-09-10 18:12:43,1389103
2025-09-10 18:12:43,1388828
2025-09-10 18:12:43,1388688
2025-09-10 18:12:43,1388570
2025-09-10 18:12:43,1388571
2025-09-10 18:12:43,1388492
2025-09-10 18:12:43,1388581
2025-09-10 18:12:43,1388588
2025-09-10 18:12:43,1388547
2025-09-10 18:12:43,1388652
2025-09-10 18:12:43,1388597
2025-09-10 18:12:43,1388667
2025-09-10 18:12:43,1388659
2025-09-10 18:12:43,1388785
2025-09-10 18:12:43,1388789
2025-09-10 18:12:43,1388852
2025-09-10 18:12:43,1388864
2025-09-10 18:12:43,1388871
2025-09-10 18:12:43,1388937
2025-09-10 18:12:43,1388999
2025-09-10 18:12:43,1389113
2025-09-10 18:12:43,1389296
2025-09-10 18:12:43,1389329
2025-09-10 18:12:43,1389477
2025-09-10 18:12:43,1389492
2025-09-10 18:12:43,1389596
2025-09-10 18:12:43,1389697
2025-09-10 18:12:43,1389766
2025-09-10 18:12:43,1389815
2025-09-10 18:12:43,1389838
2025-09-10 18:12:43,1389742
2025-09-10 18:12:43,1389741
2025-09-10 18:12:43,1389729
2025-09-10 18:12:43,1389739
2025-09-10 18:12:43,1389679
2025-09-10 18:12:43,1389728
2025-09-10 18:12:43,1389817
2025-09-10 18:12:43,1389793
2025-09-10 18:12:43,1389828
2025-09-10 18:12:43,1389901
2025-09-10 18:12:43,1389966
2025-09-10 18:12:43,1390031
2025-09-10 18:12:43,1390111
2025-09-10 18:12:43,1390230
2025-09-10 18:12:43,1390310
2025-09-10 18:12:43,1390420
2025-09-10 18:12:43,1390522
2025-09-10 18:12:43,1390566
2025-09-10 18:12:43,1390694
2025-09-10 18:12:43,1390838
2025-09-10 18:12:43,1390912
2025-09-10 18:12:43,1391041
2025-09-10 18:12:43,1391173
2025-09-10 18:12:43,1391312
2025-09-10 18:12:43,1391450
2025-09-10 18:12:43,1391500
2025-09-10 18:12:43,1391584
2025-09-10 18:12:43,1391718
2025-09-10 18:12:43,1391855
2025-09-10 18:12:43,1391975
2025-09-10 18:12:43,1392115
2025-09-10 18:12:43,1392146
2025-09-10 18:12:43,1392238
2025-09-10 18:12:43,1392413
2025-09-10 18:12:43,1392506
2025-09-10 18:12:43,1392625
2025-09-10 18:12:43,1392721
2025-09-10 18:12:43,1392891
2025-09-10 18:12:43,1392888
2025-09-10 18:12:43,1393088
2025-09-10 18:12:43,1393169
2025-09-10 18:12:43,1393232
2025-09-10 18:12:43,1393324
2025-09-10 18:12:43,1393425
2025-09-10 18:12:43,1393538
2025-09-10 18:12:43,1393645
2025-09-10 18:12:43,1393726
2025-09-10 18:12:43,1393794
2025-09-10 18:12:43,1393940
2025-09-10 18:12:44,1394122
2025-09-10 18:12:44,1394161
2025-09-10 18:12:44,1394188
2025-09-10 18:12:44,1394429
2025-09-10 18:12:44,1394412
2025-09-10 18:12:44,1394565
2025-09-10 18:12:44,1394494
2025-09-10 18:12:44,1394352
2025-09-10 18:12:44,1393902
2025-09-10 18:12:44,1393150
2025-09-10 18:12:44,1392275
2025-09-10 18:12:44,1391477
2025-09-10 18:12:44,1390733
2025-09-10 18:12:44,1390408
2025-09-10 18:12:44,1389871
2025-09-10 18:12:44,1389613
2025-09-10 18:12:44,1389401
2025-09-10 18:12:44,1389234
2025-09-10 18:12:44,1389204
2025-09-10 18:12:44,1389152
2025-09-10 18:12:44,1389142
2025-09-10 18:12:44,1389140
2025-09-10 18:12:44,1389054
2025-09-10 18:12:44,1389063
2025-09-10 18:12:44,1389240
2025-09-10 18:12:44,1389274
2025-09-10 18:12:44,1389382
2025-09-10 18:12:44,1389365
2025-09-10 18:12:44,1389420
2025-09-10 18:12:44,1389471
2025-09-10 18:12:44,1389519
2025-09-10 18:12:44,1389570
2025-09-10 18:12:44,1389646
2025-09-10 18:12:44,1389713
2025-09-10 18:12:44,1389752
2025-09-10 18:12:44,1389956
2025-09-10 18:12:44,1390040
2025-09-10 18:12:44,1390240
2025-09-10 18:12:44,1390214
2025-09-10 18:12:44,1390251
2025-09-10 18:12:44,1390398
2025-09-10 18:12:44,1390421
2025-09-10 18:12:44,1390474
2025-09-10 18:12:44,1390473
2025-09-10 18:12:44,1390499
2025-09-10 18:12:44,1390483
2025-09-10 18:12:44,1390416
2025-09-10 18:12:44,1390398
2025-09-10 18:12:44,1390387
2025-09-10 18:12:44,1390352
2025-09-10 18:12:44,1390384
2025-09-10 18:12:44,1390333
2025-09-10 18:12:44,1390367
2025-09-10 18:12:44,1390484
2025-09-10 18:12:44,1390582
2025-09-10 18:12:44,1390555
2025-09-10 18:12:44,1390608
2025-09-10 18:12:44,1390720
2025-09-10 18:12:44,1390857
2025-09-10 18:12:44,1390866
2025-09-10 18:12:44,1390915
2025-09-10 18:12:44,1391035
2025-09-10 18:12:44,1391126
2025-09-10 18:12:44,1391217
2025-09-10 18:12:44,1391394
2025-09-10 18:12:44,1391442
2025-09-10 18:12:44,1391566
2025-09-10 18:12:44,1391710
2025-09-10 18:12:44,1391727
2025-09-10 18:12:44,1391870
2025-09-10 18:12:44,1391890
2025-09-10 18:12:44,1392113
2025-09-10 18:12:44,1392168
2025-09-10 18:12:44,1392271
2025-09-10 18:12:44,1392409
2025-09-10 18:12:44,1392543
2025-09-10 18:12:44,1392600
2025-09-10 18:12:44,1392690
2025-09-10 18:12:44,1392874
2025-09-10 18:12:44,1393012
2025-09-10 18:12:44,1393141
2025-09-10 18:12:44,1393191
2025-09-10 18:12:44,1393272
2025-09-10 18:12:44,1393334
2025-09-10 18:12:44,1393498
2025-09-10 18:12:44,1393547
2025-09-10 18:12:44,1393610
2025-09-10 18:12:44,1393800
2025-09-10 18:12:44,1393874
2025-09-10 18:12:44,1393979
2025-09-10 18:12:44,1394096
2025-09-10 18:12:44,1394195
2025-09-10 18:12:44,1394287
2025-09-10 18:12:44,1394333
2025-09-10 18:12:44,1394475
2025-09-10 18:12:44,1394524
2025-09-10 18:12:44,1394439
2025-09-10 18:12:44,1394068
2025-09-10 18:12:44,1393408
2025-09-10 18:12:44,1392436
2025-09-10 18:12:45,1391623
2025-09-10 18:12:45,1390963
2025-09-10 18:12:45,1390458
2025-09-10 18:12:45,1390014
2025-09-10 18:12:45,1389688
2025-09-10 18:12:45,1389428
2025-09-10 18:12:45,1389277
2025-09-10 18:12:45,1389115
2025-09-10 18:12:45,1389039
2025-09-10 18:12:45,1389006
2025-09-10 18:12:45,1388978
2025-09-10 18:12:45,1389057
2025-09-10 18:12:45,1389026
2025-09-10 18:12:45,1388930
2025-09-10 18:12:45,1388990
2025-09-10 18:12:45,1389024
2025-09-10 18:12:45,1389045
2025-09-10 18:12:45,1389068
2025-09-10 18:12:45,1389101
2025-09-10 18:12:45,1389142
2025-09-10 18:12:45,1389117
2025-09-10 18:12:45,1389153
2025-09-10 18:12:45,1389291
2025-09-10 18:12:45,1389265
2025-09-10 18:12:45,1389381
2025-09-10 18:12:45,1389419
2025-09-10 18:12:45,1389534
2025-09-10 18:12:45,1389636
2025-09-10 18:12:45,1389701
2025-09-10 18:12:45,1389793
2025-09-10 18:12:45,1389941
2025-09-10 18:12:45,1389982
2025-09-10 18:12:45,1390067
2025-09-10 18:12:45,1390056
2025-09-10 18:12:45,1390181
2025-09-10 18:12:45,1390064
2025-09-10 18:12:45,1390164
2025-09-10 18:12:45,1390111
2025-09-10 18:12:45,1390192
2025-09-10 18:12:45,1390169
2025-09-10 18:12:45,1390191
2025-09-10 18:12:45,1390177
2025-09-10 18:12:45,1390164
2025-09-10 18:12:45,1390256
2025-09-10 18:12:45,1390321
2025-09-10 18:12:45,1390429
2025-09-10 18:12:45,1390586
2025-09-10 18:12:45,1390593
2025-09-10 18:12:45,1390744
2025-09-10 18:12:45,1390735
2025-09-10 18:12:45,1390868
2025-09-10 18:12:45,1390966
2025-09-10 18:12:45,1391086
2025-09-10 18:12:45,1391201
2025-09-10 18:12:45,1391254
2025-09-10 18:12:45,1391352
2025-09-10 18:12:45,1391450
2025-09-10 18:12:45,1391730
2025-09-10 18:12:45,1391803
2025-09-10 18:12:45,1391877
2025-09-10 18:12:45,1392020
2025-09-10 18:12:45,1392022
2025-09-10 18:12:45,1392184
2025-09-10 18:12:45,1392351
2025-09-10 18:12:45,1392421
2025-09-10 18:12:45,1392653
2025-09-10 18:12:45,1392681
2025-09-10 18:12:45,1392798
2025-09-10 18:12:45,1392889
2025-09-10 18:12:45,1393055
2025-09-10 18:12:45,1393225
2025-09-10 18:12:45,1393344
2025-09-10 18:12:45,1393384
2025-09-10 18:12:45,1393564
2025-09-10 18:12:45,1393741
2025-09-10 18:12:45,1393793
2025-09-10 18:12:45,1393943
2025-09-10 18:12:45,1394075
2025-09-10 18:12:45,1394172
2025-09-10 18:12:45,1394312
2025-09-10 18:12:45,1394398
2025-09-10 18:12:45,1394492
2025-09-10 18:12:45,1394637
2025-09-10 18:12:45,1394751
2025-09-10 18:12:45,1394857
2025-09-10 18:12:45,1394940
2025-09-10 18:12:45,1395049
2025-09-10 18:12:45,1395262
2025-09-10 18:12:45,1395298
2025-09-10 18:12:45,1395404
2025-09-10 18:12:45,1395538
2025-09-10 18:12:45,1395674
2025-09-10 18:12:45,1395804
2025-09-10 18:12:45,1395860
2025-09-10 18:12:45,1395949
2025-09-10 18:12:45,1396054
2025-09-10 18:12:45,1396250
2025-09-10 18:12:45,1396338
2025-09-10 18:12:45,1396419
2025-09-10 18:12:45,1396454
2025-09-10 18:12:45,1396428
2025-09-10 18:12:46,1396108
2025-09-10 18:12:46,1395505
2025-09-10 18:12:46,1394579
2025-09-10 18:12:46,1393643
2025-09-10 18:12:46,1392782
2025-09-10 18:12:46,1392179
2025-09-10 18:12:46,1391752
2025-09-10 18:12:46,1391296
2025-09-10 18:12:46,1391025
2025-09-10 18:12:46,1390892
2025-09-10 18:12:46,1390760
2025-09-10 18:12:46,1390680
2025-09-10 18:12:46,1390653
2025-09-10 18:12:46,1390616
2025-09-10 18:12:46,1390749
2025-09-10 18:12:46,1390749
2025-09-10 18:12:46,1390838
2025-09-10 18:12:46,1390852
2025-09-10 18:12:46,1390837
2025-09-10 18:12:46,1390911
2025-09-10 18:12:46,1391048
2025-09-10 18:12:46,1391096
2025-09-10 18:12:46,1391141
2025-09-10 18:12:46,1391141
2025-09-10 18:12:46,1391234
2025-09-10 18:12:46,1391322
2025-09-10 18:12:46,1391375
2025-09-10 18:12:46,1391517
2025-09-10 18:12:46,1391687
2025-09-10 18:12:46,1391773
