timestamp,value
2025-09-05 12:38:36,157248
2025-09-05 12:38:36,157248
2025-09-05 12:38:36,108967
2025-09-05 12:38:36,108902
2025-09-05 12:38:36,108860
2025-09-05 12:38:36,108811
2025-09-05 12:38:36,108786
2025-09-05 12:38:36,108758
2025-09-05 12:38:36,108708
2025-09-05 12:38:36,108610
2025-09-05 12:38:36,108505
2025-09-05 12:38:36,108435
2025-09-05 12:38:36,108381
2025-09-05 12:38:36,108310
2025-09-05 12:38:36,108287
2025-09-05 12:38:36,108263
2025-09-05 12:38:36,108254
2025-09-05 12:38:36,108242
2025-09-05 12:38:36,108195
2025-09-05 12:38:36,108077
2025-09-05 12:38:36,108022
2025-09-05 12:38:36,107997
2025-09-05 12:38:36,107999
2025-09-05 12:38:36,108048
2025-09-05 12:38:36,108017
2025-09-05 12:38:36,81840
2025-09-05 12:38:36,151466
2025-09-05 12:38:36,151424
2025-09-05 12:38:36,151435
2025-09-05 12:38:36,151448
2025-09-05 12:38:36,151466
2025-09-05 12:38:36,151521
2025-09-05 12:38:36,151483
2025-09-05 12:38:36,151543
2025-09-05 12:38:36,151541
2025-09-05 12:38:36,151536
2025-09-05 12:38:36,151623
2025-09-05 12:38:36,151598
2025-09-05 12:38:36,151603
2025-09-05 12:38:36,324251
2025-09-05 12:38:36,314354
2025-09-05 12:38:36,297178
2025-09-05 12:38:36,297346
2025-09-05 12:38:36,297420
2025-09-05 12:38:36,297314
2025-09-05 12:38:36,297312
2025-09-05 12:38:37,297276
2025-09-05 12:38:37,297183
2025-09-05 12:38:37,297155
2025-09-05 12:38:37,297055
2025-09-05 12:38:37,296825
2025-09-05 12:38:37,296579
2025-09-05 12:38:37,296119
2025-09-05 12:38:37,1482896
2025-09-05 12:38:37,1476530
2025-09-05 12:38:37,1474279
2025-09-05 12:38:37,1473528
2025-09-05 12:38:37,1473300
2025-09-05 12:38:37,1472491
2025-09-05 12:38:37,1470097
2025-09-05 12:38:37,1465745
2025-09-05 12:38:37,1462370
2025-09-05 12:38:37,1461913
2025-09-05 12:38:37,1462838
2025-09-05 12:38:37,1464028
2025-09-05 12:38:37,1464957
2025-09-05 12:38:37,1465285
2025-09-05 12:38:37,1442864
2025-09-05 12:38:37,1466936
2025-09-05 12:38:37,1466483
2025-09-05 12:38:37,1466097
2025-09-05 12:38:37,1465826
2025-09-05 12:38:37,1464348
2025-09-05 12:38:37,1464885
2025-09-05 12:38:37,1469639
2025-09-05 12:38:37,1476880
2025-09-05 12:38:37,1482517
2025-09-05 12:38:37,1484483
2025-09-05 12:38:37,1483760
2025-09-05 12:38:37,1483823
2025-09-05 12:38:37,1483929
2025-09-05 12:38:37,1482455
2025-09-05 12:38:37,1484003
2025-09-05 12:38:37,1483071
2025-09-05 12:38:37,1484371
2025-09-05 12:38:37,1484576
2025-09-05 12:38:37,1484962
2025-09-05 12:38:37,1484749
2025-09-05 12:38:37,1484296
2025-09-05 12:38:37,1484821
2025-09-05 12:38:37,1485862
2025-09-05 12:38:37,1486882
2025-09-05 12:38:37,1487447
2025-09-05 12:38:37,1487723
2025-09-05 12:38:37,1487648
2025-09-05 12:38:37,1488110
2025-09-05 12:38:37,1488415
2025-09-05 12:38:37,1488742
2025-09-05 12:38:37,1489082
2025-09-05 12:38:37,1488357
2025-09-05 12:38:37,1487745
2025-09-05 12:38:37,1487858
2025-09-05 12:38:37,1488610
2025-09-05 12:38:37,1490797
2025-09-05 12:38:37,1491795
2025-09-05 12:38:37,1492386
2025-09-05 12:38:37,1491856
2025-09-05 12:38:37,1492108
2025-09-05 12:38:37,1492713
2025-09-05 12:38:37,1493437
2025-09-05 12:38:37,1494385
2025-09-05 12:38:37,1495020
2025-09-05 12:38:37,1494983
2025-09-05 12:38:37,1493770
2025-09-05 12:38:37,1493174
2025-09-05 12:38:37,1492966
2025-09-05 12:38:37,1492553
2025-09-05 12:38:37,1491606
2025-09-05 12:38:37,1490794
2025-09-05 12:38:37,1490047
2025-09-05 12:38:37,1489503
2025-09-05 12:38:37,1489218
2025-09-05 12:38:37,1488960
2025-09-05 12:38:37,1488532
2025-09-05 12:38:37,1488260
2025-09-05 12:38:37,1487968
2025-09-05 12:38:37,1487770
2025-09-05 12:38:37,1487592
2025-09-05 12:38:37,1487284
2025-09-05 12:38:37,1486977
2025-09-05 12:38:37,1486748
2025-09-05 12:38:37,1486391
2025-09-05 12:38:37,1485834
2025-09-05 12:38:37,1485199
2025-09-05 12:38:37,1484639
2025-09-05 12:38:37,1484024
2025-09-05 12:38:37,1483650
2025-09-05 12:38:37,1483571
2025-09-05 12:38:37,1483835
2025-09-05 12:38:37,1484252
2025-09-05 12:38:37,1484270
2025-09-05 12:38:37,1484374
2025-09-05 12:38:37,1485077
2025-09-05 12:38:37,1485777
2025-09-05 12:38:37,1486066
2025-09-05 12:38:37,1486091
2025-09-05 12:38:38,1486251
2025-09-05 12:38:38,1486553
2025-09-05 12:38:38,1486621
2025-09-05 12:38:38,1486452
2025-09-05 12:38:38,1486199
2025-09-05 12:38:38,1485639
2025-09-05 12:38:38,1485423
2025-09-05 12:38:38,1485001
2025-09-05 12:38:38,1484274
2025-09-05 12:38:38,1483647
2025-09-05 12:38:38,1482847
2025-09-05 12:38:38,1482377
2025-09-05 12:38:38,1481957
2025-09-05 12:38:38,1481368
2025-09-05 12:38:38,1480856
2025-09-05 12:38:38,1480378
2025-09-05 12:38:38,1479874
2025-09-05 12:38:38,1479498
2025-09-05 12:38:38,1479008
2025-09-05 12:38:38,1478631
2025-09-05 12:38:38,1478224
2025-09-05 12:38:38,1478056
2025-09-05 12:38:38,1477723
2025-09-05 12:38:38,1477505
2025-09-05 12:38:38,1477347
2025-09-05 12:38:38,1477223
2025-09-05 12:38:38,1477079
2025-09-05 12:38:38,1477180
2025-09-05 12:38:38,1477027
2025-09-05 12:38:38,1477046
2025-09-05 12:38:38,1477007
2025-09-05 12:38:38,1476992
2025-09-05 12:38:38,1476992
2025-09-05 12:38:38,1476927
2025-09-05 12:38:38,1476965
2025-09-05 12:38:38,1476765
2025-09-05 12:38:38,1476774
2025-09-05 12:38:38,1476699
2025-09-05 12:38:38,1476563
2025-09-05 12:38:38,1476490
2025-09-05 12:38:38,1476364
2025-09-05 12:38:38,1476305
2025-09-05 12:38:38,1476136
2025-09-05 12:38:38,1475998
2025-09-05 12:38:38,1475961
2025-09-05 12:38:38,1475812
2025-09-05 12:38:38,1475729
2025-09-05 12:38:38,1475667
2025-09-05 12:38:38,1475495
2025-09-05 12:38:38,1475440
2025-09-05 12:38:38,1475441
2025-09-05 12:38:38,1475368
2025-09-05 12:38:38,1475411
2025-09-05 12:38:38,1475375
2025-09-05 12:38:38,1475308
2025-09-05 12:38:38,1475286
2025-09-05 12:38:38,1475332
2025-09-05 12:38:38,1475393
2025-09-05 12:38:38,1475463
2025-09-05 12:38:38,1475590
2025-09-05 12:38:38,1475564
2025-09-05 12:38:38,1475659
2025-09-05 12:38:38,1475686
2025-09-05 12:38:38,1475732
2025-09-05 12:38:38,1475830
2025-09-05 12:38:38,1475852
2025-09-05 12:38:38,1475833
2025-09-05 12:38:38,1476043
2025-09-05 12:38:38,1476050
2025-09-05 12:38:38,1475996
2025-09-05 12:38:38,1475855
2025-09-05 12:38:38,1475633
2025-09-05 12:38:38,1475366
2025-09-05 12:38:38,1474926
2025-09-05 12:38:38,1474496
2025-09-05 12:38:38,1474045
2025-09-05 12:38:38,1473379
2025-09-05 12:38:38,1472860
2025-09-05 12:38:38,1472163
2025-09-05 12:38:38,1471353
2025-09-05 12:38:38,1470676
2025-09-05 12:38:38,1470223
2025-09-05 12:38:38,1469965
2025-09-05 12:38:38,1469420
2025-09-05 12:38:38,1469057
2025-09-05 12:38:38,1468629
2025-09-05 12:38:38,1468234
2025-09-05 12:38:38,1467864
2025-09-05 12:38:38,1467649
2025-09-05 12:38:38,1467335
2025-09-05 12:38:38,1467077
2025-09-05 12:38:38,1466852
2025-09-05 12:38:38,1466661
2025-09-05 12:38:38,1466521
2025-09-05 12:38:38,1466373
2025-09-05 12:38:38,1466290
2025-09-05 12:38:38,1466220
2025-09-05 12:38:38,1466127
2025-09-05 12:38:38,1466125
2025-09-05 12:38:38,1466073
2025-09-05 12:38:39,1466097
2025-09-05 12:38:39,1466095
2025-09-05 12:38:39,1466114
2025-09-05 12:38:39,1465939
2025-09-05 12:38:39,1465897
2025-09-05 12:38:39,1465789
2025-09-05 12:38:39,1465623
2025-09-05 12:38:39,1465531
2025-09-05 12:38:39,1465501
2025-09-05 12:38:39,1465445
2025-09-05 12:38:39,1465461
2025-09-05 12:38:39,1465455
2025-09-05 12:38:39,1465299
2025-09-05 12:38:39,1465239
2025-09-05 12:38:39,1465355
2025-09-05 12:38:39,1465236
2025-09-05 12:38:39,1465413
2025-09-05 12:38:39,1465471
2025-09-05 12:38:39,1465696
2025-09-05 12:38:39,1466261
2025-09-05 12:38:39,1466730
2025-09-05 12:38:39,1467207
2025-09-05 12:38:39,1467741
2025-09-05 12:38:39,1470044
2025-09-05 12:38:39,1472821
2025-09-05 12:38:39,1471125
2025-09-05 12:38:39,1466255
2025-09-05 12:38:39,1461556
2025-09-05 12:38:39,1458594
2025-09-05 12:38:39,1456769
2025-09-05 12:38:39,1456000
2025-09-05 12:38:39,1455549
2025-09-05 12:38:39,1455786
2025-09-05 12:38:39,1456441
2025-09-05 12:38:39,1457411
2025-09-05 12:38:39,1458498
2025-09-05 12:38:39,1459493
2025-09-05 12:38:39,1460561
2025-09-05 12:38:39,1460620
2025-09-05 12:38:39,1459963
2025-09-05 12:38:39,1459965
2025-09-05 12:38:39,1460218
2025-09-05 12:38:39,1460073
2025-09-05 12:38:39,1461167
2025-09-05 12:38:39,1464293
2025-09-05 12:38:39,1465680
2025-09-05 12:38:39,1466717
2025-09-05 12:38:39,1467419
2025-09-05 12:38:39,1467208
2025-09-05 12:38:39,1466474
2025-09-05 12:38:39,1466120
2025-09-05 12:38:39,1466087
2025-09-05 12:38:39,1466122
2025-09-05 12:38:39,1466382
2025-09-05 12:38:39,1467873
2025-09-05 12:38:39,1469357
2025-09-05 12:38:39,1468046
2025-09-05 12:38:39,1467944
2025-09-05 12:38:39,1467088
2025-09-05 12:38:39,1466484
2025-09-05 12:38:39,1465862
2025-09-05 12:38:39,1465487
2025-09-05 12:38:39,1465374
2025-09-05 12:38:39,1465483
2025-09-05 12:38:39,1465362
2025-09-05 12:38:39,1465531
2025-09-05 12:38:39,1465647
2025-09-05 12:38:39,1465612
2025-09-05 12:38:39,1465662
2025-09-05 12:38:39,1465665
2025-09-05 12:38:39,1465907
2025-09-05 12:38:39,1466126
2025-09-05 12:38:39,1466388
2025-09-05 12:38:39,1466744
2025-09-05 12:38:39,1466856
2025-09-05 12:38:39,1467076
2025-09-05 12:38:39,1467371
2025-09-05 12:38:39,1467399
2025-09-05 12:38:39,1467636
2025-09-05 12:38:39,1467805
2025-09-05 12:38:39,1468108
2025-09-05 12:38:39,1468236
2025-09-05 12:38:39,1468414
2025-09-05 12:38:39,1468379
2025-09-05 12:38:39,1468599
2025-09-05 12:38:39,1468833
2025-09-05 12:38:39,1469013
2025-09-05 12:38:39,1469236
2025-09-05 12:38:39,1469429
2025-09-05 12:38:39,1469565
2025-09-05 12:38:39,1469909
2025-09-05 12:38:39,1470193
2025-09-05 12:38:39,1470348
2025-09-05 12:38:39,1470591
2025-09-05 12:38:39,1470929
2025-09-05 12:38:39,1471080
2025-09-05 12:38:39,1471099
2025-09-05 12:38:39,1471253
2025-09-05 12:38:39,1471366
2025-09-05 12:38:40,1471571
2025-09-05 12:38:40,1471758
2025-09-05 12:38:40,1471908
2025-09-05 12:38:40,1472329
2025-09-05 12:38:40,1472450
2025-09-05 12:38:40,1472661
2025-09-05 12:38:40,1472899
2025-09-05 12:38:40,1473070
2025-09-05 12:38:40,1473265
2025-09-05 12:38:40,1473114
2025-09-05 12:38:40,1473272
2025-09-05 12:38:40,1473371
2025-09-05 12:38:40,1473433
2025-09-05 12:38:40,1473563
2025-09-05 12:38:40,1473723
2025-09-05 12:38:40,1473825
2025-09-05 12:38:40,1473965
2025-09-05 12:38:40,1474136
2025-09-05 12:38:40,1474249
2025-09-05 12:38:40,1474317
2025-09-05 12:38:40,1474192
2025-09-05 12:38:40,1474067
2025-09-05 12:38:40,1473889
2025-09-05 12:38:40,1473790
2025-09-05 12:38:40,1473487
2025-09-05 12:38:40,1473275
2025-09-05 12:38:40,1472927
2025-09-05 12:38:40,1472472
2025-09-05 12:38:40,1472038
2025-09-05 12:38:40,1471701
2025-09-05 12:38:40,1471427
2025-09-05 12:38:40,1471171
2025-09-05 12:38:40,1471141
2025-09-05 12:38:40,1471082
2025-09-05 12:38:40,1470837
2025-09-05 12:38:40,1470438
2025-09-05 12:38:40,1470194
2025-09-05 12:38:40,1470114
2025-09-05 12:38:40,1470032
2025-09-05 12:38:40,1469872
2025-09-05 12:38:40,1469641
2025-09-05 12:38:40,1469555
2025-09-05 12:38:40,1469583
2025-09-05 12:38:40,1469427
2025-09-05 12:38:40,1469351
2025-09-05 12:38:40,1469169
2025-09-05 12:38:40,1469189
2025-09-05 12:38:40,1469448
2025-09-05 12:38:40,1469464
2025-09-05 12:38:40,1469510
2025-09-05 12:38:40,1469491
2025-09-05 12:38:40,1469341
2025-09-05 12:38:40,1469336
2025-09-05 12:38:40,1469319
2025-09-05 12:38:40,1469269
2025-09-05 12:38:40,1469239
2025-09-05 12:38:40,1469056
2025-09-05 12:38:40,1469073
2025-09-05 12:38:40,1469084
2025-09-05 12:38:40,1468734
2025-09-05 12:38:40,1468931
2025-09-05 12:38:40,1469038
2025-09-05 12:38:40,1469172
2025-09-05 12:38:40,1469279
2025-09-05 12:38:40,1469383
2025-09-05 12:38:40,1469582
2025-09-05 12:38:40,1469542
2025-09-05 12:38:40,1469479
2025-09-05 12:38:40,1469415
2025-09-05 12:38:40,1469405
2025-09-05 12:38:40,1469407
2025-09-05 12:38:40,1469463
2025-09-05 12:38:40,1469447
2025-09-05 12:38:40,1469537
2025-09-05 12:38:40,1469543
2025-09-05 12:38:40,1469685
2025-09-05 12:38:40,1469779
2025-09-05 12:38:40,1469902
2025-09-05 12:38:40,1470075
2025-09-05 12:38:40,1470293
2025-09-05 12:38:40,1470454
2025-09-05 12:38:40,1470567
2025-09-05 12:38:40,1470736
2025-09-05 12:38:40,1470783
2025-09-05 12:38:40,1470872
2025-09-05 12:38:40,1470904
2025-09-05 12:38:40,1470903
2025-09-05 12:38:40,1470927
2025-09-05 12:38:40,1471154
2025-09-05 12:38:40,1471314
2025-09-05 12:38:40,1471498
2025-09-05 12:38:40,1471571
2025-09-05 12:38:40,1471663
2025-09-05 12:38:40,1471646
2025-09-05 12:38:40,1471611
2025-09-05 12:38:40,1471341
2025-09-05 12:38:40,1471068
2025-09-05 12:38:40,1470684
2025-09-05 12:38:40,1470347
2025-09-05 12:38:40,1469909
2025-09-05 12:38:41,1469556
2025-09-05 12:38:41,1469174
2025-09-05 12:38:41,1468786
2025-09-05 12:38:41,1468369
2025-09-05 12:38:41,1468015
2025-09-05 12:38:41,1467824
2025-09-05 12:38:41,1467432
2025-09-05 12:38:41,1467193
2025-09-05 12:38:41,1467125
2025-09-05 12:38:41,1466805
2025-09-05 12:38:41,1466676
2025-09-05 12:38:41,1466604
2025-09-05 12:38:41,1466552
2025-09-05 12:38:41,1466356
2025-09-05 12:38:41,1466301
2025-09-05 12:38:41,1466167
2025-09-05 12:38:41,1466250
2025-09-05 12:38:41,1466119
2025-09-05 12:38:41,1466222
2025-09-05 12:38:41,1466191
2025-09-05 12:38:41,1466257
2025-09-05 12:38:41,1466263
2025-09-05 12:38:41,1466338
2025-09-05 12:38:41,1466348
2025-09-05 12:38:41,1466444
2025-09-05 12:38:41,1466434
2025-09-05 12:38:41,1466487
2025-09-05 12:38:41,1466534
2025-09-05 12:38:41,1466617
2025-09-05 12:38:41,1466626
2025-09-05 12:38:41,1466720
2025-09-05 12:38:41,1466741
2025-09-05 12:38:41,1466824
2025-09-05 12:38:41,1466777
2025-09-05 12:38:41,1466827
2025-09-05 12:38:41,1466929
2025-09-05 12:38:41,1466941
2025-09-05 12:38:41,1467032
2025-09-05 12:38:41,1467120
2025-09-05 12:38:41,1467122
2025-09-05 12:38:41,1467138
2025-09-05 12:38:41,1467203
2025-09-05 12:38:41,1467169
2025-09-05 12:38:41,1467278
2025-09-05 12:38:41,1467527
2025-09-05 12:38:41,1467511
2025-09-05 12:38:41,1467672
2025-09-05 12:38:41,1467782
2025-09-05 12:38:41,1467912
2025-09-05 12:38:41,1467873
2025-09-05 12:38:41,1468109
2025-09-05 12:38:41,1468191
2025-09-05 12:38:41,1468381
2025-09-05 12:38:41,1468398
2025-09-05 12:38:41,1468469
2025-09-05 12:38:41,1468601
2025-09-05 12:38:41,1468759
2025-09-05 12:38:41,1468953
2025-09-05 12:38:41,1468994
2025-09-05 12:38:41,1469250
2025-09-05 12:38:41,1469213
2025-09-05 12:38:41,1469456
2025-09-05 12:38:41,1469752
2025-09-05 12:38:41,1469860
2025-09-05 12:38:41,1469934
2025-09-05 12:38:41,1470035
2025-09-05 12:38:41,1470222
2025-09-05 12:38:41,1470600
2025-09-05 12:38:41,1470797
2025-09-05 12:38:41,1470918
2025-09-05 12:38:41,1470930
2025-09-05 12:38:41,1470863
2025-09-05 12:38:41,1470830
2025-09-05 12:38:41,1470786
2025-09-05 12:38:41,1470558
2025-09-05 12:38:41,1470527
2025-09-05 12:38:41,1470283
2025-09-05 12:38:41,1470102
2025-09-05 12:38:41,1469865
2025-09-05 12:38:41,1469578
2025-09-05 12:38:41,1469428
2025-09-05 12:38:41,1469217
2025-09-05 12:38:41,1468841
2025-09-05 12:38:41,1468639
2025-09-05 12:38:41,1468512
2025-09-05 12:38:41,1468277
2025-09-05 12:38:41,1468109
2025-09-05 12:38:41,1468098
2025-09-05 12:38:41,1467714
2025-09-05 12:38:41,1467709
2025-09-05 12:38:41,1467422
2025-09-05 12:38:41,1467287
2025-09-05 12:38:41,1467126
2025-09-05 12:38:41,1466821
2025-09-05 12:38:41,1466667
2025-09-05 12:38:41,1466508
2025-09-05 12:38:41,1466253
2025-09-05 12:38:41,1465816
2025-09-05 12:38:41,1465407
2025-09-05 12:38:41,1464972
2025-09-05 12:38:41,1464565
2025-09-05 12:38:42,1464101
2025-09-05 12:38:42,1463715
2025-09-05 12:38:42,1463413
2025-09-05 12:38:42,1463131
2025-09-05 12:38:42,1462553
2025-09-05 12:38:42,1461674
2025-09-05 12:38:42,1460700
2025-09-05 12:38:42,1459842
2025-09-05 12:38:42,1459377
2025-09-05 12:38:42,1458985
2025-09-05 12:38:42,1458801
2025-09-05 12:38:42,1458906
2025-09-05 12:38:42,1458926
2025-09-05 12:38:42,1459040
2025-09-05 12:38:42,1459262
2025-09-05 12:38:42,1459544
2025-09-05 12:38:42,1459825
2025-09-05 12:38:42,1460283
2025-09-05 12:38:42,1460788
2025-09-05 12:38:42,1461222
2025-09-05 12:38:42,1461898
2025-09-05 12:38:42,1462594
2025-09-05 12:38:42,1463243
2025-09-05 12:38:42,1463811
2025-09-05 12:38:42,1464328
2025-09-05 12:38:42,1464951
2025-09-05 12:38:42,1465264
2025-09-05 12:38:42,1465646
2025-09-05 12:38:42,1465844
2025-09-05 12:38:42,1466175
2025-09-05 12:38:42,1466800
2025-09-05 12:38:42,1467010
2025-09-05 12:38:42,1467146
2025-09-05 12:38:42,1467166
2025-09-05 12:38:42,1467385
2025-09-05 12:38:42,1467233
2025-09-05 12:38:42,1467275
2025-09-05 12:38:42,1467366
2025-09-05 12:38:42,1467502
2025-09-05 12:38:42,1467751
2025-09-05 12:38:42,1467888
2025-09-05 12:38:42,1467854
2025-09-05 12:38:42,1467799
2025-09-05 12:38:42,1467615
2025-09-05 12:38:42,1467404
2025-09-05 12:38:42,1467172
2025-09-05 12:38:42,1466879
2025-09-05 12:38:42,1466529
2025-09-05 12:38:42,1465886
2025-09-05 12:38:42,1465415
2025-09-05 12:38:42,1464883
2025-09-05 12:38:42,1464535
2025-09-05 12:38:42,1464139
2025-09-05 12:38:42,1463759
2025-09-05 12:38:42,1463461
2025-09-05 12:38:42,1463266
2025-09-05 12:38:42,1463146
2025-09-05 12:38:42,1462954
2025-09-05 12:38:42,1462882
2025-09-05 12:38:42,1462843
2025-09-05 12:38:42,1462815
2025-09-05 12:38:42,1462793
2025-09-05 12:38:42,1462743
2025-09-05 12:38:42,1462772
2025-09-05 12:38:42,1462730
2025-09-05 12:38:42,1462702
2025-09-05 12:38:42,1462591
2025-09-05 12:38:42,1462594
2025-09-05 12:38:42,1462700
2025-09-05 12:38:42,1462836
2025-09-05 12:38:42,1462977
2025-09-05 12:38:42,1463049
2025-09-05 12:38:42,1463143
2025-09-05 12:38:42,1463177
2025-09-05 12:38:42,1463295
2025-09-05 12:38:42,1463431
2025-09-05 12:38:42,1463394
2025-09-05 12:38:42,1463500
2025-09-05 12:38:42,1463529
2025-09-05 12:38:42,1463589
2025-09-05 12:38:42,1463534
2025-09-05 12:38:42,1463684
2025-09-05 12:38:42,1463716
2025-09-05 12:38:42,1463876
2025-09-05 12:38:42,1463891
2025-09-05 12:38:42,1463903
2025-09-05 12:38:42,1463954
2025-09-05 12:38:42,1464011
2025-09-05 12:38:42,1464209
2025-09-05 12:38:42,1464237
2025-09-05 12:38:42,1464442
2025-09-05 12:38:42,1464474
2025-09-05 12:38:42,1464500
2025-09-05 12:38:42,1464604
2025-09-05 12:38:42,1464724
2025-09-05 12:38:42,1464757
2025-09-05 12:38:42,1464869
2025-09-05 12:38:42,1465142
2025-09-05 12:38:42,1465227
2025-09-05 12:38:42,1465371
2025-09-05 12:38:43,1465453
2025-09-05 12:38:43,1465730
2025-09-05 12:38:43,1465798
2025-09-05 12:38:43,1465921
2025-09-05 12:38:43,1466075
2025-09-05 12:38:43,1466258
2025-09-05 12:38:43,1466417
2025-09-05 12:38:43,1466501
2025-09-05 12:38:43,1466634
2025-09-05 12:38:43,1466826
2025-09-05 12:38:43,1466978
2025-09-05 12:38:43,1467109
2025-09-05 12:38:43,1467290
2025-09-05 12:38:43,1467534
2025-09-05 12:38:43,1467643
2025-09-05 12:38:43,1467816
2025-09-05 12:38:43,1467796
2025-09-05 12:38:43,1467802
2025-09-05 12:38:43,1467700
2025-09-05 12:38:43,1467578
2025-09-05 12:38:43,1467269
2025-09-05 12:38:43,1467114
2025-09-05 12:38:43,1466691
2025-09-05 12:38:43,1466216
2025-09-05 12:38:43,1465788
2025-09-05 12:38:43,1465368
2025-09-05 12:38:43,1464890
2025-09-05 12:38:43,1464542
2025-09-05 12:38:43,1464213
2025-09-05 12:38:43,1463940
2025-09-05 12:38:43,1463619
2025-09-05 12:38:43,1463412
2025-09-05 12:38:43,1463308
2025-09-05 12:38:43,1463013
2025-09-05 12:38:43,1462866
2025-09-05 12:38:43,1462708
2025-09-05 12:38:43,1462713
2025-09-05 12:38:43,1462651
2025-09-05 12:38:43,1462601
2025-09-05 12:38:43,1462509
2025-09-05 12:38:43,1462547
2025-09-05 12:38:43,1462441
2025-09-05 12:38:43,1462282
2025-09-05 12:38:43,1462083
2025-09-05 12:38:43,1461983
2025-09-05 12:38:43,1462076
2025-09-05 12:38:43,1462131
2025-09-05 12:38:43,1462215
2025-09-05 12:38:43,1462297
2025-09-05 12:38:43,1462383
2025-09-05 12:38:43,1462441
2025-09-05 12:38:43,1462645
2025-09-05 12:38:43,1462701
2025-09-05 12:38:43,1462851
2025-09-05 12:38:43,1462917
2025-09-05 12:38:43,1463109
2025-09-05 12:38:43,1463127
2025-09-05 12:38:43,1463261
2025-09-05 12:38:43,1463200
2025-09-05 12:38:43,1463301
2025-09-05 12:38:43,1463385
2025-09-05 12:38:43,1463461
2025-09-05 12:38:43,1463526
2025-09-05 12:38:43,1463630
2025-09-05 12:38:43,1463696
2025-09-05 12:38:43,1463778
2025-09-05 12:38:43,1464018
2025-09-05 12:38:43,1464093
2025-09-05 12:38:43,1464254
2025-09-05 12:38:43,1464236
2025-09-05 12:38:43,1464369
2025-09-05 12:38:43,1464477
2025-09-05 12:38:43,1464700
2025-09-05 12:38:43,1464718
2025-09-05 12:38:43,1464838
2025-09-05 12:38:43,1465007
2025-09-05 12:38:43,1465155
2025-09-05 12:38:43,1465187
2025-09-05 12:38:43,1465328
2025-09-05 12:38:43,1465459
2025-09-05 12:38:43,1465715
2025-09-05 12:38:43,1465840
2025-09-05 12:38:43,1466143
2025-09-05 12:38:43,1466239
2025-09-05 12:38:43,1466302
2025-09-05 12:38:43,1466372
2025-09-05 12:38:43,1466508
2025-09-05 12:38:43,1466666
2025-09-05 12:38:43,1466845
2025-09-05 12:38:43,1467032
2025-09-05 12:38:43,1467243
2025-09-05 12:38:43,1467434
2025-09-05 12:38:43,1467623
2025-09-05 12:38:43,1467687
2025-09-05 12:38:43,1467779
2025-09-05 12:38:43,1467816
2025-09-05 12:38:43,1467635
2025-09-05 12:38:43,1467406
2025-09-05 12:38:43,1467147
2025-09-05 12:38:43,1466766
2025-09-05 12:38:44,1466233
2025-09-05 12:38:44,1465870
2025-09-05 12:38:44,1465369
2025-09-05 12:38:44,1464953
2025-09-05 12:38:44,1464460
2025-09-05 12:38:44,1464180
2025-09-05 12:38:44,1463922
2025-09-05 12:38:44,1463650
2025-09-05 12:38:44,1463457
2025-09-05 12:38:44,1463304
2025-09-05 12:38:44,1463210
2025-09-05 12:38:44,1463009
2025-09-05 12:38:44,1462968
2025-09-05 12:38:44,1462791
2025-09-05 12:38:44,1462826
2025-09-05 12:38:44,1462862
2025-09-05 12:38:44,1462689
2025-09-05 12:38:44,1462682
2025-09-05 12:38:44,1462757
2025-09-05 12:38:44,1462744
2025-09-05 12:38:44,1462676
2025-09-05 12:38:44,1462770
2025-09-05 12:38:44,1462916
2025-09-05 12:38:44,1462980
2025-09-05 12:38:44,1463173
2025-09-05 12:38:44,1463142
2025-09-05 12:38:44,1463303
2025-09-05 12:38:44,1463421
2025-09-05 12:38:44,1463451
2025-09-05 12:38:44,1463508
2025-09-05 12:38:44,1463605
2025-09-05 12:38:44,1463614
2025-09-05 12:38:44,1463738
2025-09-05 12:38:44,1463692
2025-09-05 12:38:44,1463833
2025-09-05 12:38:44,1463807
2025-09-05 12:38:44,1463851
2025-09-05 12:38:44,1463866
2025-09-05 12:38:44,1463747
2025-09-05 12:38:44,1464012
2025-09-05 12:38:44,1464032
2025-09-05 12:38:44,1464096
2025-09-05 12:38:44,1464312
2025-09-05 12:38:44,1464346
2025-09-05 12:38:44,1464342
2025-09-05 12:38:44,1464472
2025-09-05 12:38:44,1464593
2025-09-05 12:38:44,1464808
2025-09-05 12:38:44,1464836
2025-09-05 12:38:44,1464890
2025-09-05 12:38:44,1465020
2025-09-05 12:38:44,1465101
2025-09-05 12:38:44,1465334
2025-09-05 12:38:44,1465358
2025-09-05 12:38:44,1465537
2025-09-05 12:38:44,1465553
2025-09-05 12:38:44,1465750
2025-09-05 12:38:44,1465953
2025-09-05 12:38:44,1466066
2025-09-05 12:38:44,1466149
2025-09-05 12:38:44,1466228
2025-09-05 12:38:44,1466430
2025-09-05 12:38:44,1466583
2025-09-05 12:38:44,1466889
2025-09-05 12:38:44,1466993
2025-09-05 12:38:44,1467056
2025-09-05 12:38:44,1467245
2025-09-05 12:38:44,1467269
2025-09-05 12:38:44,1467444
2025-09-05 12:38:44,1467176
2025-09-05 12:38:44,1467119
2025-09-05 12:38:44,1466900
2025-09-05 12:38:44,1466666
2025-09-05 12:38:44,1466182
2025-09-05 12:38:44,1465737
2025-09-05 12:38:44,1465219
2025-09-05 12:38:44,1464794
2025-09-05 12:38:44,1464292
2025-09-05 12:38:44,1463890
2025-09-05 12:38:44,1463615
2025-09-05 12:38:44,1463302
2025-09-05 12:38:44,1462990
2025-09-05 12:38:44,1462821
2025-09-05 12:38:44,1462735
2025-09-05 12:38:44,1462660
2025-09-05 12:38:44,1462606
2025-09-05 12:38:44,1462388
2025-09-05 12:38:44,1462385
2025-09-05 12:38:44,1462341
2025-09-05 12:38:44,1462419
2025-09-05 12:38:44,1462290
2025-09-05 12:38:44,1462271
2025-09-05 12:38:44,1462370
2025-09-05 12:38:44,1462441
2025-09-05 12:38:44,1462450
2025-09-05 12:38:44,1462407
2025-09-05 12:38:44,1462575
2025-09-05 12:38:44,1462642
2025-09-05 12:38:44,1462697
2025-09-05 12:38:45,1462855
2025-09-05 12:38:45,1462914
2025-09-05 12:38:45,1462949
2025-09-05 12:38:45,1463103
2025-09-05 12:38:45,1463173
2025-09-05 12:38:45,1463202
2025-09-05 12:38:45,1463199
2025-09-05 12:38:45,1463263
2025-09-05 12:38:45,1463309
2025-09-05 12:38:45,1463305
2025-09-05 12:38:45,1463341
2025-09-05 12:38:45,1463273
2025-09-05 12:38:45,1463246
2025-09-05 12:38:45,1463366
2025-09-05 12:38:45,1463396
2025-09-05 12:38:45,1463432
2025-09-05 12:38:45,1463433
2025-09-05 12:38:45,1463549
2025-09-05 12:38:45,1463514
2025-09-05 12:38:45,1463526
2025-09-05 12:38:45,1463655
2025-09-05 12:38:45,1463708
2025-09-05 12:38:45,1463767
2025-09-05 12:38:45,1463931
2025-09-05 12:38:45,1464074
2025-09-05 12:38:45,1464098
2025-09-05 12:38:45,1464305
2025-09-05 12:38:45,1464568
2025-09-05 12:38:45,1464667
2025-09-05 12:38:45,1464925
2025-09-05 12:38:45,1464983
2025-09-05 12:38:45,1465086
2025-09-05 12:38:45,1465250
2025-09-05 12:38:45,1465350
2025-09-05 12:38:45,1465487
2025-09-05 12:38:45,1465647
2025-09-05 12:38:45,1465802
2025-09-05 12:38:45,1465986
2025-09-05 12:38:45,1466238
2025-09-05 12:38:45,1466316
2025-09-05 12:38:45,1466493
2025-09-05 12:38:45,1466675
2025-09-05 12:38:45,1466723
2025-09-05 12:38:45,1466857
2025-09-05 12:38:45,1466823
2025-09-05 12:38:45,1466655
2025-09-05 12:38:45,1466477
2025-09-05 12:38:45,1466182
2025-09-05 12:38:45,1465800
2025-09-05 12:38:45,1465323
2025-09-05 12:38:45,1464837
2025-09-05 12:38:45,1464284
2025-09-05 12:38:45,1463907
2025-09-05 12:38:45,1463539
2025-09-05 12:38:45,1463090
2025-09-05 12:38:45,1462825
2025-09-05 12:38:45,1462521
2025-09-05 12:38:45,1462212
2025-09-05 12:38:45,1462145
2025-09-05 12:38:45,1461898
2025-09-05 12:38:45,1461805
2025-09-05 12:38:45,1461756
2025-09-05 12:38:45,1461528
2025-09-05 12:38:45,1461578
2025-09-05 12:38:45,1461491
2025-09-05 12:38:45,1461471
2025-09-05 12:38:45,1461329
2025-09-05 12:38:45,1461482
2025-09-05 12:38:45,1461493
2025-09-05 12:38:45,1461400
2025-09-05 12:38:45,1461509
2025-09-05 12:38:45,1461493
2025-09-05 12:38:45,1461590
2025-09-05 12:38:45,1461611
2025-09-05 12:38:45,1461790
2025-09-05 12:38:45,1461843
2025-09-05 12:38:45,1461845
2025-09-05 12:38:45,1461925
2025-09-05 12:38:45,1462020
2025-09-05 12:38:45,1462121
2025-09-05 12:38:45,1462074
2025-09-05 12:38:45,1462058
2025-09-05 12:38:45,1462106
2025-09-05 12:38:45,1462136
2025-09-05 12:38:45,1462212
2025-09-05 12:38:45,1462200
2025-09-05 12:38:45,1462213
2025-09-05 12:38:45,1462229
2025-09-05 12:38:45,1462335
2025-09-05 12:38:45,1462453
2025-09-05 12:38:45,1462448
2025-09-05 12:38:45,1462620
2025-09-05 12:38:45,1462737
2025-09-05 12:38:45,1462802
2025-09-05 12:38:45,1462847
2025-09-05 12:38:45,1462860
2025-09-05 12:38:45,1462997
2025-09-05 12:38:45,1463068
2025-09-05 12:38:45,1463221
2025-09-05 12:38:45,1463381
2025-09-05 12:38:46,1463414
2025-09-05 12:38:46,1463479
2025-09-05 12:38:46,1463690
2025-09-05 12:38:46,1463780
2025-09-05 12:38:46,1463971
2025-09-05 12:38:46,1464048
2025-09-05 12:38:46,1464314
2025-09-05 12:38:46,1464269
2025-09-05 12:38:46,1464326
2025-09-05 12:38:46,1464515
2025-09-05 12:38:46,1464590
2025-09-05 12:38:46,1464720
2025-09-05 12:38:46,1464915
2025-09-05 12:38:46,1465101
2025-09-05 12:38:46,1465272
2025-09-05 12:38:46,1465510
2025-09-05 12:38:46,1465556
2025-09-05 12:38:46,1465720
2025-09-05 12:38:46,1465748
2025-09-05 12:38:46,1465899
2025-09-05 12:38:46,1465902
2025-09-05 12:38:46,1465757
2025-09-05 12:38:46,1465609
2025-09-05 12:38:46,1465239
2025-09-05 12:38:46,1464739
2025-09-05 12:38:46,1464260
2025-09-05 12:38:46,1463803
2025-09-05 12:38:46,1463392
2025-09-05 12:38:46,1462951
2025-09-05 12:38:46,1462438
2025-09-05 12:38:46,1462004
2025-09-05 12:38:46,1461748
2025-09-05 12:38:46,1461487
2025-09-05 12:38:46,1461295
2025-09-05 12:38:46,1461014
2025-09-05 12:38:46,1461011
2025-09-05 12:38:46,1460911
2025-09-05 12:38:46,1460789
2025-09-05 12:38:46,1460631
2025-09-05 12:38:46,1460461
2025-09-05 12:38:46,1460435
2025-09-05 12:38:46,1460380
2025-09-05 12:38:46,1460355
2025-09-05 12:38:46,1460385
2025-09-05 12:38:46,1460412
2025-09-05 12:38:46,1460453
2025-09-05 12:38:46,1460540
2025-09-05 12:38:46,1460573
2025-09-05 12:38:46,1460610
2025-09-05 12:38:46,1460638
2025-09-05 12:38:46,1460689
2025-09-05 12:38:46,1460863
2025-09-05 12:38:46,1460880
2025-09-05 12:38:46,1460881
2025-09-05 12:38:46,1460960
2025-09-05 12:38:46,1460956
2025-09-05 12:38:46,1460976
2025-09-05 12:38:46,1461048
2025-09-05 12:38:46,1461093
2025-09-05 12:38:46,1461104
2025-09-05 12:38:46,1461094
2025-09-05 12:38:46,1461096
2025-09-05 12:38:46,1461133
2025-09-05 12:38:46,1461249
2025-09-05 12:38:46,1461313
2025-09-05 12:38:46,1461306
2025-09-05 12:38:46,1461410
2025-09-05 12:38:46,1461440
2025-09-05 12:38:46,1461529
2025-09-05 12:38:46,1461676
2025-09-05 12:38:46,1461804
2025-09-05 12:38:46,1461914
2025-09-05 12:38:46,1462049
2025-09-05 12:38:46,1462054
2025-09-05 12:38:46,1462154
2025-09-05 12:38:46,1462306
2025-09-05 12:38:46,1462353
2025-09-05 12:38:46,1462581
2025-09-05 12:38:46,1462607
2025-09-05 12:38:46,1462783
2025-09-05 12:38:46,1462991
2025-09-05 12:38:46,1463152
2025-09-05 12:38:46,1463282
2025-09-05 12:38:46,1463422
2025-09-05 12:38:46,1463533
2025-09-05 12:38:46,1463658
2025-09-05 12:38:46,1463791
2025-09-05 12:38:46,1463947
2025-09-05 12:38:46,1464064
2025-09-05 12:38:46,1464315
2025-09-05 12:38:46,1464410
2025-09-05 12:38:46,1464534
2025-09-05 12:38:46,1464759
2025-09-05 12:38:46,1464926
2025-09-05 12:38:46,1465102
2025-09-05 12:38:46,1465066
2025-09-05 12:38:46,1465189
2025-09-05 12:38:46,1465077
2025-09-05 12:38:46,1464947
2025-09-05 12:38:46,1464702
2025-09-05 12:38:47,1464245
2025-09-05 12:38:47,1463902
2025-09-05 12:38:47,1463413
2025-09-05 12:38:47,1462831
2025-09-05 12:38:47,1462350
2025-09-05 12:38:47,1462075
2025-09-05 12:38:47,1461455
2025-09-05 12:38:47,1461211
2025-09-05 12:38:47,1460979
2025-09-05 12:38:47,1460739
2025-09-05 12:38:47,1460630
2025-09-05 12:38:47,1460425
2025-09-05 12:38:47,1460238
2025-09-05 12:38:47,1460242
2025-09-05 12:38:47,1460181
2025-09-05 12:38:47,1460063
2025-09-05 12:38:47,1460001
2025-09-05 12:38:47,1459977
2025-09-05 12:38:47,1459877
2025-09-05 12:38:47,1459965
2025-09-05 12:38:47,1459893
2025-09-05 12:38:47,1460057
2025-09-05 12:38:47,1460066
2025-09-05 12:38:47,1460097
2025-09-05 12:38:47,1460219
2025-09-05 12:38:47,1460286
2025-09-05 12:38:47,1460450
2025-09-05 12:38:47,1460528
2025-09-05 12:38:47,1460593
2025-09-05 12:38:47,1460666
2025-09-05 12:38:47,1460651
2025-09-05 12:38:47,1460787
2025-09-05 12:38:47,1460844
2025-09-05 12:38:47,1460871
2025-09-05 12:38:47,1460952
2025-09-05 12:38:47,1461079
2025-09-05 12:38:47,1460996
2025-09-05 12:38:47,1460966
2025-09-05 12:38:47,1461056
2025-09-05 12:38:47,1461093
2025-09-05 12:38:47,1461101
2025-09-05 12:38:47,1461150
2025-09-05 12:38:47,1461255
2025-09-05 12:38:47,1461296
2025-09-05 12:38:47,1461399
2025-09-05 12:38:47,1461551
2025-09-05 12:38:47,1461741
2025-09-05 12:38:47,1461718
2025-09-05 12:38:47,1461849
2025-09-05 12:38:47,1461926
2025-09-05 12:38:47,1462023
2025-09-05 12:38:47,1462179
2025-09-05 12:38:47,1462300
2025-09-05 12:38:47,1462439
2025-09-05 12:38:47,1462482
2025-09-05 12:38:47,1462645
2025-09-05 12:38:47,1462799
2025-09-05 12:38:47,1462836
2025-09-05 12:38:47,1463077
2025-09-05 12:38:47,1463135
2025-09-05 12:38:47,1463229
2025-09-05 12:38:47,1463369
2025-09-05 12:38:47,1463484
2025-09-05 12:38:47,1463662
2025-09-05 12:38:47,1463929
2025-09-05 12:38:47,1464210
2025-09-05 12:38:47,1464234
2025-09-05 12:38:47,1464339
2025-09-05 12:38:47,1464460
2025-09-05 12:38:47,1464483
2025-09-05 12:38:47,1464495
2025-09-05 12:38:47,1464423
2025-09-05 12:38:47,1464354
2025-09-05 12:38:47,1463990
2025-09-05 12:38:47,1463621
2025-09-05 12:38:47,1463164
2025-09-05 12:38:47,1462782
2025-09-05 12:38:47,1462216
2025-09-05 12:38:47,1461783
2025-09-05 12:38:47,1461340
2025-09-05 12:38:47,1461071
2025-09-05 12:38:47,1460760
2025-09-05 12:38:47,1460571
2025-09-05 12:38:47,1460401
2025-09-05 12:38:47,1460279
2025-09-05 12:38:47,1460171
2025-09-05 12:38:47,1460013
2025-09-05 12:38:47,1459911
2025-09-05 12:38:47,1459842
2025-09-05 12:38:47,1459855
2025-09-05 12:38:47,1459799
2025-09-05 12:38:47,1459734
2025-09-05 12:38:47,1459704
2025-09-05 12:38:47,1459700
2025-09-05 12:38:47,1459879
2025-09-05 12:38:47,1459830
2025-09-05 12:38:47,1459952
2025-09-05 12:38:47,1460033
2025-09-05 12:38:47,1460103
2025-09-05 12:38:47,1460137
2025-09-05 12:38:48,1460213
2025-09-05 12:38:48,1460276
2025-09-05 12:38:48,1460410
2025-09-05 12:38:48,1460485
2025-09-05 12:38:48,1460510
2025-09-05 12:38:48,1460590
2025-09-05 12:38:48,1460720
2025-09-05 12:38:48,1460693
2025-09-05 12:38:48,1460764
2025-09-05 12:38:48,1460683
2025-09-05 12:38:48,1460844
2025-09-05 12:38:48,1460764
2025-09-05 12:38:48,1460845
2025-09-05 12:38:48,1460858
2025-09-05 12:38:48,1460940
2025-09-05 12:38:48,1460986
2025-09-05 12:38:48,1461175
2025-09-05 12:38:48,1461247
2025-09-05 12:38:48,1461265
2025-09-05 12:38:48,1461368
2025-09-05 12:38:48,1461533
2025-09-05 12:38:48,1461614
2025-09-05 12:38:48,1461670
2025-09-05 12:38:48,1461816
2025-09-05 12:38:48,1461847
2025-09-05 12:38:48,1461930
2025-09-05 12:38:48,1462051
2025-09-05 12:38:48,1462253
2025-09-05 12:38:48,1462335
2025-09-05 12:38:48,1462500
2025-09-05 12:38:48,1462598
2025-09-05 12:38:48,1462713
2025-09-05 12:38:48,1462822
2025-09-05 12:38:48,1463080
2025-09-05 12:38:48,1463246
2025-09-05 12:38:48,1463360
2025-09-05 12:38:48,1463517
2025-09-05 12:38:48,1463560
2025-09-05 12:38:48,1463740
2025-09-05 12:38:48,1464046
2025-09-05 12:38:48,1464180
2025-09-05 12:38:48,1464244
2025-09-05 12:38:48,1464352
2025-09-05 12:38:48,1464371
2025-09-05 12:38:48,1464424
2025-09-05 12:38:48,1464298
2025-09-05 12:38:48,1464129
2025-09-05 12:38:48,1463914
2025-09-05 12:38:48,1463535
2025-09-05 12:38:48,1463087
2025-09-05 12:38:48,1462549
2025-09-05 12:38:48,1462113
2025-09-05 12:38:48,1461547
2025-09-05 12:38:48,1461150
2025-09-05 12:38:48,1460898
2025-09-05 12:38:48,1460539
2025-09-05 12:38:48,1460168
2025-09-05 12:38:48,1460056
2025-09-05 12:38:48,1459860
2025-09-05 12:38:48,1459825
2025-09-05 12:38:48,1459558
2025-09-05 12:38:48,1459466
2025-09-05 12:38:48,1459470
2025-09-05 12:38:48,1459403
2025-09-05 12:38:48,1459239
2025-09-05 12:38:48,1459265
2025-09-05 12:38:48,1459213
2025-09-05 12:38:48,1459125
2025-09-05 12:38:48,1459301
2025-09-05 12:38:48,1459207
2025-09-05 12:38:48,1459244
2025-09-05 12:38:48,1459299
2025-09-05 12:38:48,1459343
2025-09-05 12:38:48,1459437
2025-09-05 12:38:48,1459532
2025-09-05 12:38:48,1459689
2025-09-05 12:38:48,1459712
2025-09-05 12:38:48,1459815
2025-09-05 12:38:48,1459860
2025-09-05 12:38:48,1459913
2025-09-05 12:38:48,1459993
2025-09-05 12:38:48,1459898
2025-09-05 12:38:48,1460027
2025-09-05 12:38:48,1460095
2025-09-05 12:38:48,1460085
2025-09-05 12:38:48,1460123
2025-09-05 12:38:48,1460070
2025-09-05 12:38:48,1460137
2025-09-05 12:38:48,1460213
2025-09-05 12:38:48,1460355
2025-09-05 12:38:48,1460319
2025-09-05 12:38:48,1460377
2025-09-05 12:38:48,1460538
2025-09-05 12:38:48,1460566
2025-09-05 12:38:48,1460716
2025-09-05 12:38:48,1460793
2025-09-05 12:38:48,1460929
2025-09-05 12:38:48,1461071
2025-09-05 12:38:48,1461124
2025-09-05 12:38:48,1461204
2025-09-05 12:38:49,1461286
2025-09-05 12:38:49,1461461
2025-09-05 12:38:49,1461619
2025-09-05 12:38:49,1461672
2025-09-05 12:38:49,1461856
2025-09-05 12:38:49,1462006
2025-09-05 12:38:49,1462095
2025-09-05 12:38:49,1462323
2025-09-05 12:38:49,1462445
2025-09-05 12:38:49,1462473
2025-09-05 12:38:49,1462606
2025-09-05 12:38:49,1462815
2025-09-05 12:38:49,1462928
2025-09-05 12:38:49,1463126
2025-09-05 12:38:49,1463251
2025-09-05 12:38:49,1463455
2025-09-05 12:38:49,1463575
2025-09-05 12:38:49,1463672
2025-09-05 12:38:49,1463766
2025-09-05 12:38:49,1463824
2025-09-05 12:38:49,1463773
2025-09-05 12:38:49,1463643
2025-09-05 12:38:49,1463366
2025-09-05 12:38:49,1463108
2025-09-05 12:38:49,1462591
2025-09-05 12:38:49,1461949
2025-09-05 12:38:49,1461559
2025-09-05 12:38:49,1461128
2025-09-05 12:38:49,1460585
2025-09-05 12:38:49,1460395
2025-09-05 12:38:49,1460048
2025-09-05 12:38:49,1459713
2025-09-05 12:38:49,1459451
2025-09-05 12:38:49,1459205
2025-09-05 12:38:49,1459165
2025-09-05 12:38:49,1459032
2025-09-05 12:38:49,1459000
2025-09-05 12:38:49,1458914
2025-09-05 12:38:49,1458759
2025-09-05 12:38:49,1458674
2025-09-05 12:38:49,1458668
2025-09-05 12:38:49,1458647
2025-09-05 12:38:49,1458598
2025-09-05 12:38:49,1458604
2025-09-05 12:38:49,1458697
2025-09-05 12:38:49,1458744
2025-09-05 12:38:49,1458667
2025-09-05 12:38:49,1458824
2025-09-05 12:38:49,1458936
2025-09-05 12:38:49,1459002
2025-09-05 12:38:49,1459062
2025-09-05 12:38:49,1459090
2025-09-05 12:38:49,1459249
2025-09-05 12:38:49,1459345
2025-09-05 12:38:49,1459387
2025-09-05 12:38:49,1459424
2025-09-05 12:38:49,1459356
2025-09-05 12:38:49,1459366
2025-09-05 12:38:49,1459511
2025-09-05 12:38:49,1459429
2025-09-05 12:38:49,1459555
2025-09-05 12:38:49,1459556
2025-09-05 12:38:49,1459578
2025-09-05 12:38:49,1459915
2025-09-05 12:38:49,1459867
2025-09-05 12:38:49,1459939
2025-09-05 12:38:49,1459974
2025-09-05 12:38:49,1460021
2025-09-05 12:38:49,1460153
2025-09-05 12:38:49,1460184
2025-09-05 12:38:49,1460297
2025-09-05 12:38:49,1460412
2025-09-05 12:38:49,1460518
2025-09-05 12:38:49,1460536
2025-09-05 12:38:49,1460667
2025-09-05 12:38:49,1460713
2025-09-05 12:38:49,1460898
2025-09-05 12:38:49,1461133
2025-09-05 12:38:49,1461220
2025-09-05 12:38:49,1461251
2025-09-05 12:38:49,1461457
2025-09-05 12:38:49,1461681
2025-09-05 12:38:49,1461830
2025-09-05 12:38:49,1461858
2025-09-05 12:38:49,1462047
2025-09-05 12:38:49,1462151
2025-09-05 12:38:49,1462300
2025-09-05 12:38:49,1462478
2025-09-05 12:38:49,1462596
2025-09-05 12:38:49,1462816
2025-09-05 12:38:49,1462951
2025-09-05 12:38:49,1463070
2025-09-05 12:38:49,1463266
2025-09-05 12:38:49,1463510
2025-09-05 12:38:49,1463562
2025-09-05 12:38:49,1463663
2025-09-05 12:38:49,1463780
2025-09-05 12:38:49,1463784
2025-09-05 12:38:49,1463590
2025-09-05 12:38:50,1463372
2025-09-05 12:38:50,1463034
2025-09-05 12:38:50,1462611
2025-09-05 12:38:50,1462123
2025-09-05 12:38:50,1461589
2025-09-05 12:38:50,1461064
2025-09-05 12:38:50,1460647
2025-09-05 12:38:50,1460283
2025-09-05 12:38:50,1460017
2025-09-05 12:38:50,1459696
2025-09-05 12:38:50,1459404
2025-09-05 12:38:50,1459283
2025-09-05 12:38:50,1459153
2025-09-05 12:38:50,1459170
2025-09-05 12:38:50,1459050
2025-09-05 12:38:50,1459037
2025-09-05 12:38:50,1458977
2025-09-05 12:38:50,1458857
2025-09-05 12:38:50,1458767
2025-09-05 12:38:50,1458675
2025-09-05 12:38:50,1458723
2025-09-05 12:38:50,1458780
2025-09-05 12:38:50,1458757
2025-09-05 12:38:50,1458844
2025-09-05 12:38:50,1458888
2025-09-05 12:38:50,1458966
2025-09-05 12:38:50,1459064
2025-09-05 12:38:50,1459229
2025-09-05 12:38:50,1459178
2025-09-05 12:38:50,1459249
2025-09-05 12:38:50,1459374
2025-09-05 12:38:50,1459411
2025-09-05 12:38:50,1459587
2025-09-05 12:38:50,1459584
2025-09-05 12:38:50,1459590
2025-09-05 12:38:50,1459660
2025-09-05 12:38:50,1459735
2025-09-05 12:38:50,1459753
2025-09-05 12:38:50,1459779
2025-09-05 12:38:50,1459657
2025-09-05 12:38:50,1459800
2025-09-05 12:38:50,1459864
2025-09-05 12:38:50,1459857
2025-09-05 12:38:50,1459924
2025-09-05 12:38:50,1460037
2025-09-05 12:38:50,1460210
2025-09-05 12:38:50,1460233
2025-09-05 12:38:50,1460302
2025-09-05 12:38:50,1460424
2025-09-05 12:38:50,1460493
2025-09-05 12:38:50,1460624
2025-09-05 12:38:50,1460761
2025-09-05 12:38:50,1460947
2025-09-05 12:38:50,1461075
2025-09-05 12:38:50,1461081
2025-09-05 12:38:50,1461216
2025-09-05 12:38:50,1461316
2025-09-05 12:38:50,1461598
2025-09-05 12:38:50,1461746
2025-09-05 12:38:50,1461797
2025-09-05 12:38:50,1461915
2025-09-05 12:38:50,1462145
2025-09-05 12:38:50,1462225
2025-09-05 12:38:50,1462369
2025-09-05 12:38:50,1462472
2025-09-05 12:38:50,1462717
2025-09-05 12:38:50,1462785
2025-09-05 12:38:50,1462969
2025-09-05 12:38:50,1463118
2025-09-05 12:38:50,1463253
2025-09-05 12:38:50,1463375
2025-09-05 12:38:50,1463559
2025-09-05 12:38:50,1463587
2025-09-05 12:38:50,1463518
2025-09-05 12:38:50,1463387
2025-09-05 12:38:50,1463150
2025-09-05 12:38:50,1462749
2025-09-05 12:38:50,1462440
2025-09-05 12:38:50,1461779
2025-09-05 12:38:50,1461220
2025-09-05 12:38:50,1460790
2025-09-05 12:38:50,1460284
2025-09-05 12:38:50,1460043
2025-09-05 12:38:50,1459814
2025-09-05 12:38:50,1459597
2025-09-05 12:38:50,1459456
2025-09-05 12:38:50,1459287
2025-09-05 12:38:50,1459114
2025-09-05 12:38:50,1459170
2025-09-05 12:38:50,1459046
2025-09-05 12:38:50,1458950
2025-09-05 12:38:50,1458897
2025-09-05 12:38:50,1458822
2025-09-05 12:38:50,1458797
2025-09-05 12:38:50,1458789
2025-09-05 12:38:50,1458823
2025-09-05 12:38:50,1458878
2025-09-05 12:38:50,1458957
2025-09-05 12:38:50,1459050
2025-09-05 12:38:50,1459111
2025-09-05 12:38:51,1459226
2025-09-05 12:38:51,1459299
2025-09-05 12:38:51,1459430
2025-09-05 12:38:51,1459532
2025-09-05 12:38:51,1459661
2025-09-05 12:38:51,1459640
2025-09-05 12:38:51,1459706
2025-09-05 12:38:51,1459796
2025-09-05 12:38:51,1459957
2025-09-05 12:38:51,1459868
2025-09-05 12:38:51,1459914
2025-09-05 12:38:51,1459938
2025-09-05 12:38:51,1459951
2025-09-05 12:38:51,1459983
2025-09-05 12:38:51,1459964
2025-09-05 12:38:51,1460089
2025-09-05 12:38:51,1460095
2025-09-05 12:38:51,1460195
2025-09-05 12:38:51,1460387
2025-09-05 12:38:51,1460367
2025-09-05 12:38:51,1460405
2025-09-05 12:38:51,1460574
2025-09-05 12:38:51,1460652
2025-09-05 12:38:51,1460841
2025-09-05 12:38:51,1460918
2025-09-05 12:38:51,1461038
2025-09-05 12:38:51,1461157
2025-09-05 12:38:51,1461230
2025-09-05 12:38:51,1461371
2025-09-05 12:38:51,1461442
2025-09-05 12:38:51,1461611
2025-09-05 12:38:51,1461707
2025-09-05 12:38:51,1461939
2025-09-05 12:38:51,1462014
2025-09-05 12:38:51,1462114
2025-09-05 12:38:51,1462188
2025-09-05 12:38:51,1462426
2025-09-05 12:38:51,1462490
2025-09-05 12:38:51,1462705
2025-09-05 12:38:51,1462829
2025-09-05 12:38:51,1462941
2025-09-05 12:38:51,1463219
2025-09-05 12:38:51,1463197
2025-09-05 12:38:51,1463296
2025-09-05 12:38:51,1463364
2025-09-05 12:38:51,1463516
2025-09-05 12:38:51,1463383
2025-09-05 12:38:51,1463241
2025-09-05 12:38:51,1462889
2025-09-05 12:38:51,1462581
2025-09-05 12:38:51,1462135
2025-09-05 12:38:51,1461735
2025-09-05 12:38:51,1461143
2025-09-05 12:38:51,1460764
2025-09-05 12:38:51,1460315
2025-09-05 12:38:51,1459920
2025-09-05 12:38:51,1459657
2025-09-05 12:38:51,1459391
2025-09-05 12:38:51,1459212
2025-09-05 12:38:51,1458969
2025-09-05 12:38:51,1458939
2025-09-05 12:38:51,1458854
2025-09-05 12:38:51,1458745
2025-09-05 12:38:51,1458604
2025-09-05 12:38:51,1458586
2025-09-05 12:38:51,1458581
2025-09-05 12:38:51,1458436
2025-09-05 12:38:51,1458429
2025-09-05 12:38:51,1458386
2025-09-05 12:38:51,1458328
2025-09-05 12:38:51,1458409
2025-09-05 12:38:51,1458577
2025-09-05 12:38:51,1458563
2025-09-05 12:38:51,1458640
2025-09-05 12:38:51,1458730
2025-09-05 12:38:51,1458794
2025-09-05 12:38:51,1458802
2025-09-05 12:38:51,1458916
2025-09-05 12:38:51,1459023
2025-09-05 12:38:51,1459063
2025-09-05 12:38:51,1459186
2025-09-05 12:38:51,1459228
2025-09-05 12:38:51,1459239
2025-09-05 12:38:51,1459272
2025-09-05 12:38:51,1459293
2025-09-05 12:38:51,1459326
2025-09-05 12:38:51,1459447
2025-09-05 12:38:51,1459356
2025-09-05 12:38:51,1459418
2025-09-05 12:38:51,1459471
2025-09-05 12:38:51,1459475
2025-09-05 12:38:51,1459700
2025-09-05 12:38:51,1459676
2025-09-05 12:38:51,1459841
2025-09-05 12:38:51,1459890
2025-09-05 12:38:51,1459976
2025-09-05 12:38:51,1459995
2025-09-05 12:38:51,1460170
2025-09-05 12:38:51,1460286
2025-09-05 12:38:51,1460305
2025-09-05 12:38:52,1460527
2025-09-05 12:38:52,1460563
2025-09-05 12:38:52,1460674
2025-09-05 12:38:52,1460815
2025-09-05 12:38:52,1461054
2025-09-05 12:38:52,1461079
2025-09-05 12:38:52,1461305
2025-09-05 12:38:52,1461384
2025-09-05 12:38:52,1461425
2025-09-05 12:38:52,1461600
2025-09-05 12:38:52,1461765
2025-09-05 12:38:52,1461966
2025-09-05 12:38:52,1462032
2025-09-05 12:38:52,1462317
2025-09-05 12:38:52,1462430
2025-09-05 12:38:52,1462605
2025-09-05 12:38:52,1462739
2025-09-05 12:38:52,1462829
2025-09-05 12:38:52,1462937
2025-09-05 12:38:52,1463046
2025-09-05 12:38:52,1463057
2025-09-05 12:38:52,1463055
2025-09-05 12:38:52,1462824
2025-09-05 12:38:52,1462537
2025-09-05 12:38:52,1462168
2025-09-05 12:38:52,1461591
2025-09-05 12:38:52,1461116
2025-09-05 12:38:52,1460626
2025-09-05 12:38:52,1460206
2025-09-05 12:38:52,1459782
2025-09-05 12:38:52,1459400
2025-09-05 12:38:52,1459112
2025-09-05 12:38:52,1458798
2025-09-05 12:38:52,1458748
2025-09-05 12:38:52,1458583
2025-09-05 12:38:52,1458310
2025-09-05 12:38:52,1458296
2025-09-05 12:38:52,1458118
2025-09-05 12:38:52,1458077
2025-09-05 12:38:52,1458008
2025-09-05 12:38:52,1457936
2025-09-05 12:38:52,1457885
2025-09-05 12:38:52,1457815
2025-09-05 12:38:52,1457792
2025-09-05 12:38:52,1457800
2025-09-05 12:38:52,1457832
2025-09-05 12:38:52,1457879
2025-09-05 12:38:52,1457856
2025-09-05 12:38:52,1457977
2025-09-05 12:38:52,1458042
2025-09-05 12:38:52,1458119
2025-09-05 12:38:52,1458210
2025-09-05 12:38:52,1458317
2025-09-05 12:38:52,1458339
2025-09-05 12:38:52,1458423
2025-09-05 12:38:52,1458460
2025-09-05 12:38:52,1458517
2025-09-05 12:38:52,1458554
2025-09-05 12:38:52,1458546
2025-09-05 12:38:52,1458646
2025-09-05 12:38:52,1458643
2025-09-05 12:38:52,1458640
2025-09-05 12:38:52,1458755
2025-09-05 12:38:52,1458872
2025-09-05 12:38:52,1458838
2025-09-05 12:38:52,1458960
2025-09-05 12:38:52,1459056
2025-09-05 12:38:52,1459039
2025-09-05 12:38:52,1459151
2025-09-05 12:38:52,1459267
2025-09-05 12:38:52,1459328
2025-09-05 12:38:52,1459471
2025-09-05 12:38:52,1459603
2025-09-05 12:38:52,1459662
2025-09-05 12:38:52,1459689
2025-09-05 12:38:52,1459760
2025-09-05 12:38:52,1459965
2025-09-05 12:38:52,1460130
2025-09-05 12:38:52,1460142
2025-09-05 12:38:52,1460324
2025-09-05 12:38:52,1460529
2025-09-05 12:38:52,1460632
2025-09-05 12:38:52,1460746
2025-09-05 12:38:52,1460933
2025-09-05 12:38:52,1461086
2025-09-05 12:38:52,1461193
2025-09-05 12:38:52,1461327
2025-09-05 12:38:52,1461433
2025-09-05 12:38:52,1461499
2025-09-05 12:38:52,1461780
2025-09-05 12:38:52,1461880
2025-09-05 12:38:52,1462078
2025-09-05 12:38:52,1462222
2025-09-05 12:38:52,1462385
2025-09-05 12:38:52,1462526
2025-09-05 12:38:52,1462596
2025-09-05 12:38:52,1462661
2025-09-05 12:38:52,1462565
2025-09-05 12:38:52,1462358
2025-09-05 12:38:52,1462081
2025-09-05 12:38:53,1461598
2025-09-05 12:38:53,1460953
2025-09-05 12:38:53,1460591
2025-09-05 12:38:53,1460025
2025-09-05 12:38:53,1459763
2025-09-05 12:38:53,1459363
2025-09-05 12:38:53,1458911
2025-09-05 12:38:53,1458616
2025-09-05 12:38:53,1458311
2025-09-05 12:38:53,1458167
2025-09-05 12:38:53,1458027
2025-09-05 12:38:53,1457840
2025-09-05 12:38:53,1457726
2025-09-05 12:38:53,1457606
2025-09-05 12:38:53,1457575
2025-09-05 12:38:53,1457584
2025-09-05 12:38:53,1457452
2025-09-05 12:38:53,1457386
2025-09-05 12:38:53,1457342
2025-09-05 12:38:53,1457375
2025-09-05 12:38:53,1457347
2025-09-05 12:38:53,1457380
2025-09-05 12:38:53,1457373
2025-09-05 12:38:53,1457429
2025-09-05 12:38:53,1457600
2025-09-05 12:38:53,1457522
2025-09-05 12:38:53,1457634
2025-09-05 12:38:53,1457777
2025-09-05 12:38:53,1457881
2025-09-05 12:38:53,1457939
2025-09-05 12:38:53,1457943
2025-09-05 12:38:53,1458056
2025-09-05 12:38:53,1458109
2025-09-05 12:38:53,1458103
2025-09-05 12:38:53,1458140
2025-09-05 12:38:53,1458153
2025-09-05 12:38:53,1458183
2025-09-05 12:38:53,1458197
2025-09-05 12:38:53,1458289
2025-09-05 12:38:53,1458392
2025-09-05 12:38:53,1458402
2025-09-05 12:38:53,1458452
2025-09-05 12:38:53,1458480
2025-09-05 12:38:53,1458645
2025-09-05 12:38:53,1458711
2025-09-05 12:38:53,1458762
2025-09-05 12:38:53,1458922
2025-09-05 12:38:53,1458948
2025-09-05 12:38:53,1459078
2025-09-05 12:38:53,1459143
2025-09-05 12:38:53,1459297
2025-09-05 12:38:53,1459350
2025-09-05 12:38:53,1459473
2025-09-05 12:38:53,1459641
2025-09-05 12:38:53,1459687
2025-09-05 12:38:53,1459999
2025-09-05 12:38:53,1460034
2025-09-05 12:38:53,1460246
2025-09-05 12:38:53,1460263
2025-09-05 12:38:53,1460512
2025-09-05 12:38:53,1460527
2025-09-05 12:38:53,1460705
2025-09-05 12:38:53,1460836
2025-09-05 12:38:53,1461015
2025-09-05 12:38:53,1461097
2025-09-05 12:38:53,1461212
2025-09-05 12:38:53,1461498
2025-09-05 12:38:53,1461564
2025-09-05 12:38:53,1461786
2025-09-05 12:38:53,1461971
2025-09-05 12:38:53,1462052
2025-09-05 12:38:53,1462055
2025-09-05 12:38:53,1462141
2025-09-05 12:38:53,1462156
2025-09-05 12:38:53,1462010
2025-09-05 12:38:53,1461620
2025-09-05 12:38:53,1461360
2025-09-05 12:38:53,1460808
2025-09-05 12:38:53,1460290
2025-09-05 12:38:53,1459880
2025-09-05 12:38:53,1459435
2025-09-05 12:38:53,1458904
2025-09-05 12:38:53,1458499
2025-09-05 12:38:53,1458151
2025-09-05 12:38:53,1457948
2025-09-05 12:38:53,1457748
2025-09-05 12:38:53,1457555
2025-09-05 12:38:53,1457505
2025-09-05 12:38:53,1457447
2025-09-05 12:38:53,1457320
2025-09-05 12:38:53,1457210
2025-09-05 12:38:53,1457223
2025-09-05 12:38:53,1457098
2025-09-05 12:38:53,1457102
2025-09-05 12:38:53,1456957
2025-09-05 12:38:53,1457061
2025-09-05 12:38:53,1457022
2025-09-05 12:38:53,1457021
2025-09-05 12:38:53,1457203
2025-09-05 12:38:53,1457209
2025-09-05 12:38:54,1457316
2025-09-05 12:38:54,1457380
2025-09-05 12:38:54,1457481
2025-09-05 12:38:54,1457538
2025-09-05 12:38:54,1457696
2025-09-05 12:38:54,1457834
2025-09-05 12:38:54,1457893
2025-09-05 12:38:54,1457788
2025-09-05 12:38:54,1457988
2025-09-05 12:38:54,1457976
2025-09-05 12:38:54,1457958
2025-09-05 12:38:54,1457979
2025-09-05 12:38:54,1458055
2025-09-05 12:38:54,1458143
2025-09-05 12:38:54,1458202
2025-09-05 12:38:54,1458099
2025-09-05 12:38:54,1458277
2025-09-05 12:38:54,1458250
2025-09-05 12:38:54,1458376
2025-09-05 12:38:54,1458478
2025-09-05 12:38:54,1458561
2025-09-05 12:38:54,1458623
2025-09-05 12:38:54,1458847
2025-09-05 12:38:54,1458851
2025-09-05 12:38:54,1458943
2025-09-05 12:38:54,1459002
2025-09-05 12:38:54,1459185
2025-09-05 12:38:54,1459293
2025-09-05 12:38:54,1459463
2025-09-05 12:38:54,1459649
2025-09-05 12:38:54,1459760
2025-09-05 12:38:54,1459743
2025-09-05 12:38:54,1459923
2025-09-05 12:38:54,1460151
2025-09-05 12:38:54,1460166
2025-09-05 12:38:54,1460349
2025-09-05 12:38:54,1460446
2025-09-05 12:38:54,1460634
2025-09-05 12:38:54,1460755
2025-09-05 12:38:54,1460951
2025-09-05 12:38:54,1461094
2025-09-05 12:38:54,1461315
2025-09-05 12:38:54,1461411
2025-09-05 12:38:54,1461476
2025-09-05 12:38:54,1461663
2025-09-05 12:38:54,1461795
2025-09-05 12:38:54,1461751
2025-09-05 12:38:54,1461618
2025-09-05 12:38:54,1461354
2025-09-05 12:38:54,1461138
2025-09-05 12:38:54,1460659
2025-09-05 12:38:54,1460077
2025-09-05 12:38:54,1459554
2025-09-05 12:38:54,1459006
2025-09-05 12:38:54,1458635
2025-09-05 12:38:54,1458240
2025-09-05 12:38:54,1457972
2025-09-05 12:38:54,1457598
2025-09-05 12:38:54,1457387
2025-09-05 12:38:54,1457383
2025-09-05 12:38:54,1457125
2025-09-05 12:38:54,1457047
2025-09-05 12:38:54,1457008
2025-09-05 12:38:54,1456928
2025-09-05 12:38:54,1456847
2025-09-05 12:38:54,1456779
2025-09-05 12:38:54,1456699
2025-09-05 12:38:54,1456761
2025-09-05 12:38:54,1456664
2025-09-05 12:38:54,1456746
2025-09-05 12:38:54,1456824
2025-09-05 12:38:54,1456891
2025-09-05 12:38:54,1457009
2025-09-05 12:38:54,1457028
2025-09-05 12:38:54,1457234
2025-09-05 12:38:54,1457303
2025-09-05 12:38:54,1457326
2025-09-05 12:38:54,1457476
2025-09-05 12:38:54,1457491
2025-09-05 12:38:54,1457601
2025-09-05 12:38:54,1457607
2025-09-05 12:38:54,1457774
2025-09-05 12:38:54,1457721
2025-09-05 12:38:54,1457745
2025-09-05 12:38:54,1457807
2025-09-05 12:38:54,1457831
2025-09-05 12:38:54,1457776
2025-09-05 12:38:54,1457758
2025-09-05 12:38:54,1457789
2025-09-05 12:38:54,1457849
2025-09-05 12:38:54,1458017
2025-09-05 12:38:54,1457989
2025-09-05 12:38:54,1458096
2025-09-05 12:38:54,1458313
2025-09-05 12:38:54,1458339
2025-09-05 12:38:54,1458434
2025-09-05 12:38:54,1458521
2025-09-05 12:38:54,1458614
2025-09-05 12:38:54,1458800
2025-09-05 12:38:55,1458793
2025-09-05 12:38:55,1458934
2025-09-05 12:38:55,1459117
2025-09-05 12:38:55,1459221
2025-09-05 12:38:55,1459288
2025-09-05 12:38:55,1459463
2025-09-05 12:38:55,1459592
2025-09-05 12:38:55,1459776
2025-09-05 12:38:55,1459846
2025-09-05 12:38:55,1459989
2025-09-05 12:38:55,1460176
2025-09-05 12:38:55,1460222
2025-09-05 12:38:55,1460395
2025-09-05 12:38:55,1460534
2025-09-05 12:38:55,1460646
2025-09-05 12:38:55,1460871
2025-09-05 12:38:55,1460949
2025-09-05 12:38:55,1461134
2025-09-05 12:38:55,1461127
2025-09-05 12:38:55,1461141
2025-09-05 12:38:55,1461107
2025-09-05 12:38:55,1460797
2025-09-05 12:38:55,1460404
2025-09-05 12:38:55,1459972
2025-09-05 12:38:55,1459517
2025-09-05 12:38:55,1459008
2025-09-05 12:38:55,1458626
2025-09-05 12:38:55,1458165
2025-09-05 12:38:55,1457710
2025-09-05 12:38:55,1457353
2025-09-05 12:38:55,1456969
2025-09-05 12:38:55,1456649
2025-09-05 12:38:55,1456552
2025-09-05 12:38:55,1456380
2025-09-05 12:38:55,1456227
2025-09-05 12:38:55,1456149
2025-09-05 12:38:55,1455992
2025-09-05 12:38:55,1456067
2025-09-05 12:38:55,1455996
2025-09-05 12:38:55,1455851
2025-09-05 12:38:55,1455796
2025-09-05 12:38:55,1455768
2025-09-05 12:38:55,1455711
2025-09-05 12:38:55,1455772
2025-09-05 12:38:55,1455817
2025-09-05 12:38:55,1455824
2025-09-05 12:38:55,1455914
2025-09-05 12:38:55,1455965
2025-09-05 12:38:55,1456109
2025-09-05 12:38:55,1456223
2025-09-05 12:38:55,1456199
2025-09-05 12:38:55,1456260
2025-09-05 12:38:55,1456353
2025-09-05 12:38:55,1456520
2025-09-05 12:38:55,1456518
2025-09-05 12:38:55,1456578
2025-09-05 12:38:55,1456624
2025-09-05 12:38:55,1456650
2025-09-05 12:38:55,1456664
2025-09-05 12:38:55,1456724
2025-09-05 12:38:55,1456619
2025-09-05 12:38:55,1456789
2025-09-05 12:38:55,1456777
2025-09-05 12:38:55,1456790
2025-09-05 12:38:55,1456894
2025-09-05 12:38:55,1456994
2025-09-05 12:38:55,1457087
2025-09-05 12:38:55,1457240
2025-09-05 12:38:55,1457208
2025-09-05 12:38:55,1457422
2025-09-05 12:38:55,1457422
2025-09-05 12:38:55,1457498
2025-09-05 12:38:55,1457548
2025-09-05 12:38:55,1457738
2025-09-05 12:38:55,1457768
2025-09-05 12:38:55,1457890
2025-09-05 12:38:55,1458080
2025-09-05 12:38:55,1458251
2025-09-05 12:38:55,1458589
2025-09-05 12:38:55,1458756
2025-09-05 12:38:55,1458791
2025-09-05 12:38:55,1459022
2025-09-05 12:38:55,1459069
2025-09-05 12:38:55,1459175
2025-09-05 12:38:55,1459317
2025-09-05 12:38:55,1459484
2025-09-05 12:38:55,1459721
2025-09-05 12:38:55,1459846
2025-09-05 12:38:55,1459990
2025-09-05 12:38:55,1460161
2025-09-05 12:38:55,1460185
2025-09-05 12:38:55,1460284
2025-09-05 12:38:55,1460360
2025-09-05 12:38:55,1460168
2025-09-05 12:38:55,1460055
2025-09-05 12:38:55,1459700
2025-09-05 12:38:55,1459187
2025-09-05 12:38:55,1458690
2025-09-05 12:38:55,1458273
2025-09-05 12:38:55,1457757
2025-09-05 12:38:56,1457364
2025-09-05 12:38:56,1456963
2025-09-05 12:38:56,1456480
2025-09-05 12:38:56,1456183
2025-09-05 12:38:56,1455926
2025-09-05 12:38:56,1455652
2025-09-05 12:38:56,1455569
2025-09-05 12:38:56,1455445
2025-09-05 12:38:56,1455389
2025-09-05 12:38:56,1455242
2025-09-05 12:38:56,1455068
2025-09-05 12:38:56,1455046
2025-09-05 12:38:56,1455081
2025-09-05 12:38:56,1455003
2025-09-05 12:38:56,1455012
2025-09-05 12:38:56,1454968
2025-09-05 12:38:56,1454872
2025-09-05 12:38:56,1454963
2025-09-05 12:38:56,1455035
2025-09-05 12:38:56,1455069
2025-09-05 12:38:56,1455184
2025-09-05 12:38:56,1455215
2025-09-05 12:38:56,1455300
2025-09-05 12:38:56,1455403
2025-09-05 12:38:56,1455465
2025-09-05 12:38:56,1455583
2025-09-05 12:38:56,1455665
2025-09-05 12:38:56,1455702
2025-09-05 12:38:56,1455780
2025-09-05 12:38:56,1455858
2025-09-05 12:38:56,1455809
2025-09-05 12:38:56,1455828
2025-09-05 12:38:56,1455921
2025-09-05 12:38:56,1455925
2025-09-05 12:38:56,1455891
2025-09-05 12:38:56,1455930
2025-09-05 12:38:56,1455986
2025-09-05 12:38:56,1456114
2025-09-05 12:38:56,1456189
2025-09-05 12:38:56,1456246
2025-09-05 12:38:56,1456417
2025-09-05 12:38:56,1456464
2025-09-05 12:38:56,1456574
2025-09-05 12:38:56,1456674
2025-09-05 12:38:56,1456805
2025-09-05 12:38:56,1456819
2025-09-05 12:38:56,1456953
2025-09-05 12:38:56,1457078
2025-09-05 12:38:56,1457166
2025-09-05 12:38:56,1457334
2025-09-05 12:38:56,1457505
2025-09-05 12:38:56,1457663
2025-09-05 12:38:56,1457785
2025-09-05 12:38:56,1457911
2025-09-05 12:38:56,1458124
2025-09-05 12:38:56,1458184
2025-09-05 12:38:56,1458374
2025-09-05 12:38:56,1458552
2025-09-05 12:38:56,1458678
2025-09-05 12:38:56,1458800
2025-09-05 12:38:56,1458926
2025-09-05 12:38:56,1459149
2025-09-05 12:38:56,1459228
2025-09-05 12:38:56,1459383
2025-09-05 12:38:56,1459638
2025-09-05 12:38:56,1459728
2025-09-05 12:38:56,1459822
2025-09-05 12:38:56,1459992
2025-09-05 12:38:56,1460086
2025-09-05 12:38:56,1460098
2025-09-05 12:38:56,1459978
2025-09-05 12:38:56,1459616
2025-09-05 12:38:56,1459343
2025-09-05 12:38:56,1458789
2025-09-05 12:38:56,1458331
2025-09-05 12:38:56,1457717
2025-09-05 12:38:56,1457293
2025-09-05 12:38:56,1456838
2025-09-05 12:38:56,1456533
2025-09-05 12:38:56,1456134
2025-09-05 12:38:56,1455771
2025-09-05 12:38:56,1455553
2025-09-05 12:38:56,1455295
2025-09-05 12:38:56,1455249
2025-09-05 12:38:56,1455089
2025-09-05 12:38:56,1454964
2025-09-05 12:38:56,1454911
2025-09-05 12:38:56,1454864
2025-09-05 12:38:56,1454794
2025-09-05 12:38:56,1454698
2025-09-05 12:38:56,1454745
2025-09-05 12:38:56,1454685
2025-09-05 12:38:56,1454647
2025-09-05 12:38:56,1454656
2025-09-05 12:38:56,1454715
2025-09-05 12:38:56,1454754
2025-09-05 12:38:56,1454760
2025-09-05 12:38:56,1454937
2025-09-05 12:38:56,1454919
2025-09-05 12:38:56,1455126
2025-09-05 12:38:57,1455252
2025-09-05 12:38:57,1455224
2025-09-05 12:38:57,1455423
2025-09-05 12:38:57,1455394
2025-09-05 12:38:57,1455423
2025-09-05 12:38:57,1455575
2025-09-05 12:38:57,1455663
2025-09-05 12:38:57,1455557
2025-09-05 12:38:57,1455691
2025-09-05 12:38:57,1455688
2025-09-05 12:38:57,1455782
2025-09-05 12:38:57,1455776
2025-09-05 12:38:57,1455917
2025-09-05 12:38:57,1455878
2025-09-05 12:38:57,1456081
2025-09-05 12:38:57,1456124
2025-09-05 12:38:57,1456124
2025-09-05 12:38:57,1456234
2025-09-05 12:38:57,1456368
2025-09-05 12:38:57,1456537
2025-09-05 12:38:57,1456542
2025-09-05 12:38:57,1456660
2025-09-05 12:38:57,1456774
2025-09-05 12:38:57,1456896
2025-09-05 12:38:57,1457005
2025-09-05 12:38:57,1457053
2025-09-05 12:38:57,1457228
2025-09-05 12:38:57,1457313
2025-09-05 12:38:57,1457522
2025-09-05 12:38:57,1457587
2025-09-05 12:38:57,1457795
2025-09-05 12:38:57,1457959
2025-09-05 12:38:57,1458153
2025-09-05 12:38:57,1458263
2025-09-05 12:38:57,1458450
2025-09-05 12:38:57,1458481
2025-09-05 12:38:57,1458683
2025-09-05 12:38:57,1458820
2025-09-05 12:38:57,1458995
2025-09-05 12:38:57,1459221
2025-09-05 12:38:57,1459381
2025-09-05 12:38:57,1459462
2025-09-05 12:38:57,1459740
2025-09-05 12:38:57,1459887
2025-09-05 12:38:57,1460080
2025-09-05 12:38:57,1460114
2025-09-05 12:38:57,1460291
2025-09-05 12:38:57,1460344
2025-09-05 12:38:57,1460172
2025-09-05 12:38:57,1459909
2025-09-05 12:38:57,1459561
2025-09-05 12:38:57,1459196
2025-09-05 12:38:57,1458598
2025-09-05 12:38:57,1458074
2025-09-05 12:38:57,1457549
2025-09-05 12:38:57,1457147
2025-09-05 12:38:57,1456766
2025-09-05 12:38:57,1456347
2025-09-05 12:38:57,1456002
2025-09-05 12:38:57,1455828
2025-09-05 12:38:57,1455563
2025-09-05 12:38:57,1455440
2025-09-05 12:38:57,1455317
2025-09-05 12:38:57,1455197
2025-09-05 12:38:57,1455122
2025-09-05 12:38:57,1455112
2025-09-05 12:38:57,1455152
2025-09-05 12:38:57,1455100
2025-09-05 12:38:57,1455057
2025-09-05 12:38:57,1455034
2025-09-05 12:38:57,1454985
2025-09-05 12:38:57,1455054
2025-09-05 12:38:57,1455040
2025-09-05 12:38:57,1455007
2025-09-05 12:38:57,1455159
2025-09-05 12:38:57,1455086
2025-09-05 12:38:57,1455257
2025-09-05 12:38:57,1455395
2025-09-05 12:38:57,1455549
2025-09-05 12:38:57,1455619
2025-09-05 12:38:57,1455628
2025-09-05 12:38:57,1455749
2025-09-05 12:38:57,1455848
2025-09-05 12:38:57,1455903
2025-09-05 12:38:57,1455910
2025-09-05 12:38:57,1455902
2025-09-05 12:38:57,1455976
2025-09-05 12:38:57,1456010
2025-09-05 12:38:57,1456044
2025-09-05 12:38:57,1456059
2025-09-05 12:38:57,1456153
2025-09-05 12:38:57,1456230
2025-09-05 12:38:57,1456338
2025-09-05 12:38:57,1456353
2025-09-05 12:38:57,1456418
2025-09-05 12:38:57,1456519
2025-09-05 12:38:57,1456584
2025-09-05 12:38:57,1456740
2025-09-05 12:38:57,1456850
2025-09-05 12:38:57,1456940
2025-09-05 12:38:58,1456994
2025-09-05 12:38:58,1457116
2025-09-05 12:38:58,1457341
2025-09-05 12:38:58,1457374
2025-09-05 12:38:58,1457508
2025-09-05 12:38:58,1457655
2025-09-05 12:38:58,1457782
2025-09-05 12:38:58,1458003
2025-09-05 12:38:58,1458065
2025-09-05 12:38:58,1458194
2025-09-05 12:38:58,1458404
2025-09-05 12:38:58,1458473
2025-09-05 12:38:58,1458765
2025-09-05 12:38:58,1458787
2025-09-05 12:38:58,1459072
2025-09-05 12:38:58,1459187
2025-09-05 12:38:58,1459419
2025-09-05 12:38:58,1459490
2025-09-05 12:38:58,1459577
2025-09-05 12:38:58,1459720
2025-09-05 12:38:58,1459946
2025-09-05 12:38:58,1460132
2025-09-05 12:38:58,1460334
2025-09-05 12:38:58,1460459
2025-09-05 12:38:58,1460594
2025-09-05 12:38:58,1460706
2025-09-05 12:38:58,1460745
2025-09-05 12:38:58,1460654
2025-09-05 12:38:58,1460471
2025-09-05 12:38:58,1460039
2025-09-05 12:38:58,1459613
2025-09-05 12:38:58,1459017
2025-09-05 12:38:58,1458422
2025-09-05 12:38:58,1457938
2025-09-05 12:38:58,1457504
2025-09-05 12:38:58,1457065
2025-09-05 12:38:58,1456733
2025-09-05 12:38:58,1456427
2025-09-05 12:38:58,1456240
2025-09-05 12:38:58,1456037
2025-09-05 12:38:58,1456020
2025-09-05 12:38:58,1455865
2025-09-05 12:38:58,1455871
2025-09-05 12:38:58,1455743
2025-09-05 12:38:58,1455704
2025-09-05 12:38:58,1455604
2025-09-05 12:38:58,1455653
2025-09-05 12:38:58,1455633
2025-09-05 12:38:58,1455632
2025-09-05 12:38:58,1455518
2025-09-05 12:38:58,1455628
2025-09-05 12:38:58,1455719
2025-09-05 12:38:58,1455791
2025-09-05 12:38:58,1455849
2025-09-05 12:38:58,1455909
2025-09-05 12:38:58,1456017
2025-09-05 12:38:58,1456141
2025-09-05 12:38:58,1456228
2025-09-05 12:38:58,1456404
2025-09-05 12:38:58,1456351
2025-09-05 12:38:58,1456508
2025-09-05 12:38:58,1456481
2025-09-05 12:38:58,1456558
2025-09-05 12:38:58,1456608
2025-09-05 12:38:58,1456630
2025-09-05 12:38:58,1456636
2025-09-05 12:38:58,1456679
2025-09-05 12:38:58,1456771
2025-09-05 12:38:58,1456862
2025-09-05 12:38:58,1456923
2025-09-05 12:38:58,1456889
2025-09-05 12:38:58,1456989
2025-09-05 12:38:58,1457062
2025-09-05 12:38:58,1457181
2025-09-05 12:38:58,1457251
2025-09-05 12:38:58,1457442
2025-09-05 12:38:58,1457547
2025-09-05 12:38:58,1457676
2025-09-05 12:38:58,1457639
2025-09-05 12:38:58,1457768
2025-09-05 12:38:58,1457866
2025-09-05 12:38:58,1457968
2025-09-05 12:38:58,1458068
2025-09-05 12:38:58,1458198
2025-09-05 12:38:58,1458503
2025-09-05 12:38:58,1458652
2025-09-05 12:38:58,1458825
2025-09-05 12:38:58,1458961
2025-09-05 12:38:58,1459064
2025-09-05 12:38:58,1459239
2025-09-05 12:38:58,1459272
2025-09-05 12:38:58,1459356
2025-09-05 12:38:58,1459487
2025-09-05 12:38:58,1459795
2025-09-05 12:38:58,1459888
2025-09-05 12:38:58,1460064
2025-09-05 12:38:58,1460259
2025-09-05 12:38:58,1460464
2025-09-05 12:38:58,1460543
2025-09-05 12:38:58,1460764
2025-09-05 12:38:59,1460837
2025-09-05 12:38:59,1460953
2025-09-05 12:38:59,1460955
2025-09-05 12:38:59,1460727
2025-09-05 12:38:59,1460412
2025-09-05 12:38:59,1459974
2025-09-05 12:38:59,1459480
2025-09-05 12:38:59,1458900
2025-09-05 12:38:59,1458321
2025-09-05 12:38:59,1457879
2025-09-05 12:38:59,1457465
2025-09-05 12:38:59,1457199
2025-09-05 12:38:59,1456832
2025-09-05 12:38:59,1456682
2025-09-05 12:38:59,1456535
2025-09-05 12:38:59,1456324
2025-09-05 12:38:59,1456329
2025-09-05 12:38:59,1456319
2025-09-05 12:38:59,1456212
2025-09-05 12:38:59,1456170
2025-09-05 12:38:59,1456108
2025-09-05 12:38:59,1456162
2025-09-05 12:38:59,1456150
2025-09-05 12:38:59,1456046
2025-09-05 12:38:59,1456226
2025-09-05 12:38:59,1456191
2025-09-05 12:38:59,1456331
2025-09-05 12:38:59,1456269
2025-09-05 12:38:59,1456469
2025-09-05 12:38:59,1456654
2025-09-05 12:38:59,1456717
2025-09-05 12:38:59,1456806
2025-09-05 12:38:59,1456969
2025-09-05 12:38:59,1457032
2025-09-05 12:38:59,1457088
2025-09-05 12:38:59,1457231
2025-09-05 12:38:59,1457239
2025-09-05 12:38:59,1457291
2025-09-05 12:38:59,1457267
2025-09-05 12:38:59,1457345
2025-09-05 12:38:59,1457370
2025-09-05 12:38:59,1457336
2025-09-05 12:38:59,1457322
2025-09-05 12:38:59,1457445
2025-09-05 12:38:59,1457536
2025-09-05 12:38:59,1457528
2025-09-05 12:38:59,1457620
2025-09-05 12:38:59,1457733
2025-09-05 12:38:59,1457840
2025-09-05 12:38:59,1457953
2025-09-05 12:38:59,1458033
2025-09-05 12:38:59,1458014
2025-09-05 12:38:59,1458244
2025-09-05 12:38:59,1458334
2025-09-05 12:38:59,1458509
2025-09-05 12:38:59,1458500
2025-09-05 12:38:59,1458762
2025-09-05 12:38:59,1458791
2025-09-05 12:38:59,1458956
2025-09-05 12:38:59,1459087
2025-09-05 12:38:59,1459293
2025-09-05 12:38:59,1459368
2025-09-05 12:38:59,1459537
2025-09-05 12:38:59,1459732
2025-09-05 12:38:59,1459739
2025-09-05 12:38:59,1459937
2025-09-05 12:38:59,1460055
2025-09-05 12:38:59,1460106
2025-09-05 12:38:59,1460478
2025-09-05 12:38:59,1460552
2025-09-05 12:38:59,1460687
2025-09-05 12:38:59,1460924
2025-09-05 12:38:59,1461010
2025-09-05 12:38:59,1461052
2025-09-05 12:38:59,1460992
2025-09-05 12:38:59,1460883
2025-09-05 12:38:59,1460535
2025-09-05 12:38:59,1460275
2025-09-05 12:38:59,1459813
2025-09-05 12:38:59,1459202
2025-09-05 12:38:59,1458815
2025-09-05 12:38:59,1458193
2025-09-05 12:38:59,1457792
2025-09-05 12:38:59,1457391
2025-09-05 12:38:59,1457219
2025-09-05 12:38:59,1456928
2025-09-05 12:38:59,1456678
2025-09-05 12:38:59,1456552
2025-09-05 12:38:59,1456416
2025-09-05 12:38:59,1456257
2025-09-05 12:38:59,1456176
2025-09-05 12:38:59,1456147
2025-09-05 12:38:59,1456043
2025-09-05 12:38:59,1456042
2025-09-05 12:38:59,1456070
2025-09-05 12:38:59,1456015
2025-09-05 12:38:59,1456009
2025-09-05 12:38:59,1456053
2025-09-05 12:38:59,1456109
2025-09-05 12:39:00,1456143
2025-09-05 12:39:00,1456149
2025-09-05 12:39:00,1456241
2025-09-05 12:39:00,1456344
2025-09-05 12:39:00,1456359
2025-09-05 12:39:00,1456488
2025-09-05 12:39:00,1456558
2025-09-05 12:39:00,1456742
2025-09-05 12:39:00,1456802
2025-09-05 12:39:00,1456852
2025-09-05 12:39:00,1456906
2025-09-05 12:39:00,1456930
2025-09-05 12:39:00,1457008
2025-09-05 12:39:00,1457051
2025-09-05 12:39:00,1457056
2025-09-05 12:39:00,1457109
2025-09-05 12:39:00,1457085
2025-09-05 12:39:00,1457138
2025-09-05 12:39:00,1457201
2025-09-05 12:39:00,1457271
2025-09-05 12:39:00,1457364
2025-09-05 12:39:00,1457366
2025-09-05 12:39:00,1457539
2025-09-05 12:39:00,1457580
2025-09-05 12:39:00,1457659
2025-09-05 12:39:00,1457847
2025-09-05 12:39:00,1457869
2025-09-05 12:39:00,1458018
2025-09-05 12:39:00,1458159
2025-09-05 12:39:00,1458233
2025-09-05 12:39:00,1458313
2025-09-05 12:39:00,1458465
2025-09-05 12:39:00,1458626
2025-09-05 12:39:00,1458740
2025-09-05 12:39:00,1458891
2025-09-05 12:39:00,1458982
2025-09-05 12:39:00,1459184
2025-09-05 12:39:00,1459320
2025-09-05 12:39:00,1459433
2025-09-05 12:39:00,1459648
2025-09-05 12:39:00,1459720
2025-09-05 12:39:00,1459932
2025-09-05 12:39:00,1460034
2025-09-05 12:39:00,1460160
2025-09-05 12:39:00,1460406
2025-09-05 12:39:00,1460568
2025-09-05 12:39:00,1460681
2025-09-05 12:39:00,1460804
2025-09-05 12:39:00,1460994
2025-09-05 12:39:00,1461032
2025-09-05 12:39:00,1460944
2025-09-05 12:39:00,1460779
2025-09-05 12:39:00,1460718
2025-09-05 12:39:00,1460361
2025-09-05 12:39:00,1459835
2025-09-05 12:39:00,1459180
2025-09-05 12:39:00,1458669
2025-09-05 12:39:00,1458291
2025-09-05 12:39:00,1457776
2025-09-05 12:39:00,1457097
2025-09-05 12:39:00,1456703
2025-09-05 12:39:00,1456610
2025-09-05 12:39:00,1456432
2025-09-05 12:39:00,1456208
2025-09-05 12:39:00,1456140
2025-09-05 12:39:00,1456054
2025-09-05 12:39:00,1456079
2025-09-05 12:39:00,1455954
2025-09-05 12:39:00,1455867
2025-09-05 12:39:00,1455837
2025-09-05 12:39:00,1455886
2025-09-05 12:39:00,1455757
2025-09-05 12:39:00,1455790
2025-09-05 12:39:00,1455776
2025-09-05 12:39:00,1455816
2025-09-05 12:39:00,1455898
2025-09-05 12:39:00,1456010
2025-09-05 12:39:00,1456101
2025-09-05 12:39:00,1456239
2025-09-05 12:39:00,1456298
2025-09-05 12:39:00,1456304
2025-09-05 12:39:00,1456416
2025-09-05 12:39:00,1456519
2025-09-05 12:39:00,1456637
2025-09-05 12:39:00,1456685
2025-09-05 12:39:00,1456628
2025-09-05 12:39:00,1456876
2025-09-05 12:39:00,1456949
2025-09-05 12:39:00,1457001
2025-09-05 12:39:00,1456891
2025-09-05 12:39:00,1457024
2025-09-05 12:39:00,1456958
2025-09-05 12:39:00,1456953
2025-09-05 12:39:00,1457163
2025-09-05 12:39:00,1457134
2025-09-05 12:39:00,1457199
2025-09-05 12:39:00,1457287
2025-09-05 12:39:00,1457466
2025-09-05 12:39:00,1457524
2025-09-05 12:39:00,1457712
2025-09-05 12:39:01,1457739
2025-09-05 12:39:01,1457815
2025-09-05 12:39:01,1457923
2025-09-05 12:39:01,1458047
2025-09-05 12:39:01,1458208
2025-09-05 12:39:01,1458329
2025-09-05 12:39:01,1458489
2025-09-05 12:39:01,1458579
2025-09-05 12:39:01,1458649
2025-09-05 12:39:01,1458941
2025-09-05 12:39:01,1459107
2025-09-05 12:39:01,1459237
2025-09-05 12:39:01,1459315
2025-09-05 12:39:01,1459499
2025-09-05 12:39:01,1459590
2025-09-05 12:39:01,1459746
2025-09-05 12:39:01,1459958
2025-09-05 12:39:01,1460037
2025-09-05 12:39:01,1460259
2025-09-05 12:39:01,1460393
2025-09-05 12:39:01,1460641
2025-09-05 12:39:01,1460777
2025-09-05 12:39:01,1460913
2025-09-05 12:39:01,1461031
2025-09-05 12:39:01,1461075
2025-09-05 12:39:01,1460999
2025-09-05 12:39:01,1460855
2025-09-05 12:39:01,1460613
2025-09-05 12:39:01,1460301
2025-09-05 12:39:01,1459679
2025-09-05 12:39:01,1459195
2025-09-05 12:39:01,1458582
2025-09-05 12:39:01,1458032
2025-09-05 12:39:01,1457686
2025-09-05 12:39:01,1457340
2025-09-05 12:39:01,1457064
2025-09-05 12:39:01,1456855
2025-09-05 12:39:01,1456544
2025-09-05 12:39:01,1456447
2025-09-05 12:39:01,1456414
2025-09-05 12:39:01,1456386
2025-09-05 12:39:01,1456343
2025-09-05 12:39:01,1456208
2025-09-05 12:39:01,1456188
2025-09-05 12:39:01,1456164
2025-09-05 12:39:01,1456155
2025-09-05 12:39:01,1456085
2025-09-05 12:39:01,1456127
2025-09-05 12:39:01,1456184
2025-09-05 12:39:01,1456172
2025-09-05 12:39:01,1456202
2025-09-05 12:39:01,1456332
2025-09-05 12:39:01,1456488
2025-09-05 12:39:01,1456502
2025-09-05 12:39:01,1456575
2025-09-05 12:39:01,1456692
2025-09-05 12:39:01,1456780
2025-09-05 12:39:01,1456963
2025-09-05 12:39:01,1457011
2025-09-05 12:39:01,1457097
2025-09-05 12:39:01,1457089
2025-09-05 12:39:01,1457183
2025-09-05 12:39:01,1457232
2025-09-05 12:39:01,1457283
2025-09-05 12:39:01,1457321
2025-09-05 12:39:01,1457267
2025-09-05 12:39:01,1457318
2025-09-05 12:39:01,1457352
2025-09-05 12:39:01,1457396
2025-09-05 12:39:01,1457484
2025-09-05 12:39:01,1457538
2025-09-05 12:39:01,1457681
2025-09-05 12:39:01,1457702
2025-09-05 12:39:01,1457843
2025-09-05 12:39:01,1458057
2025-09-05 12:39:01,1458128
2025-09-05 12:39:01,1458249
2025-09-05 12:39:01,1458305
2025-09-05 12:39:01,1458466
2025-09-05 12:39:01,1458465
2025-09-05 12:39:01,1458545
2025-09-05 12:39:01,1458756
2025-09-05 12:39:01,1458834
2025-09-05 12:39:01,1458999
2025-09-05 12:39:01,1459234
2025-09-05 12:39:01,1459378
2025-09-05 12:39:01,1459655
2025-09-05 12:39:01,1459737
2025-09-05 12:39:01,1459785
2025-09-05 12:39:01,1460020
2025-09-05 12:39:01,1460191
2025-09-05 12:39:01,1460285
2025-09-05 12:39:01,1460451
2025-09-05 12:39:01,1460728
2025-09-05 12:39:01,1460819
2025-09-05 12:39:01,1460952
2025-09-05 12:39:01,1461215
2025-09-05 12:39:01,1461300
2025-09-05 12:39:01,1461413
2025-09-05 12:39:01,1461490
2025-09-05 12:39:02,1461595
2025-09-05 12:39:02,1461729
2025-09-05 12:39:02,1461447
2025-09-05 12:39:02,1461249
2025-09-05 12:39:02,1460858
2025-09-05 12:39:02,1460275
2025-09-05 12:39:02,1459535
2025-09-05 12:39:02,1459083
2025-09-05 12:39:02,1458475
2025-09-05 12:39:02,1458148
2025-09-05 12:39:02,1457736
2025-09-05 12:39:02,1457428
2025-09-05 12:39:02,1457164
2025-09-05 12:39:02,1456916
2025-09-05 12:39:02,1456754
2025-09-05 12:39:02,1456642
2025-09-05 12:39:02,1456490
2025-09-05 12:39:02,1456457
2025-09-05 12:39:02,1456377
2025-09-05 12:39:02,1456360
2025-09-05 12:39:02,1456273
2025-09-05 12:39:02,1456199
2025-09-05 12:39:02,1456158
2025-09-05 12:39:02,1456222
2025-09-05 12:39:02,1456114
2025-09-05 12:39:02,1456190
2025-09-05 12:39:02,1456285
2025-09-05 12:39:02,1456281
2025-09-05 12:39:02,1456357
2025-09-05 12:39:02,1456470
2025-09-05 12:39:02,1456553
2025-09-05 12:39:02,1456676
2025-09-05 12:39:02,1456733
2025-09-05 12:39:02,1456844
2025-09-05 12:39:02,1456965
2025-09-05 12:39:02,1457006
2025-09-05 12:39:02,1457073
2025-09-05 12:39:02,1457184
2025-09-05 12:39:02,1457115
2025-09-05 12:39:02,1457170
2025-09-05 12:39:02,1457248
2025-09-05 12:39:02,1457246
2025-09-05 12:39:02,1457284
2025-09-05 12:39:02,1457301
2025-09-05 12:39:02,1457459
2025-09-05 12:39:02,1457442
2025-09-05 12:39:02,1457433
2025-09-05 12:39:02,1457601
2025-09-05 12:39:02,1457663
2025-09-05 12:39:02,1457772
2025-09-05 12:39:02,1457956
2025-09-05 12:39:02,1458036
2025-09-05 12:39:02,1458171
2025-09-05 12:39:02,1458235
2025-09-05 12:39:02,1458373
2025-09-05 12:39:02,1458548
2025-09-05 12:39:02,1458602
2025-09-05 12:39:02,1458759
2025-09-05 12:39:02,1458941
2025-09-05 12:39:02,1459093
2025-09-05 12:39:02,1459205
2025-09-05 12:39:02,1459329
2025-09-05 12:39:02,1459454
2025-09-05 12:39:02,1459628
2025-09-05 12:39:02,1459792
2025-09-05 12:39:02,1459919
2025-09-05 12:39:02,1460176
2025-09-05 12:39:02,1460280
2025-09-05 12:39:02,1460413
2025-09-05 12:39:02,1460535
2025-09-05 12:39:02,1460716
2025-09-05 12:39:02,1460960
2025-09-05 12:39:02,1461095
2025-09-05 12:39:02,1461269
2025-09-05 12:39:02,1461524
2025-09-05 12:39:02,1461710
2025-09-05 12:39:02,1461763
2025-09-05 12:39:02,1461869
2025-09-05 12:39:02,1461889
2025-09-05 12:39:02,1461904
2025-09-05 12:39:02,1461746
2025-09-05 12:39:02,1461504
2025-09-05 12:39:02,1461059
2025-09-05 12:39:02,1460538
2025-09-05 12:39:02,1459832
2025-09-05 12:39:02,1459197
2025-09-05 12:39:02,1458640
2025-09-05 12:39:02,1458165
2025-09-05 12:39:02,1457868
2025-09-05 12:39:02,1457490
2025-09-05 12:39:02,1457298
2025-09-05 12:39:02,1457113
2025-09-05 12:39:02,1457065
2025-09-05 12:39:02,1456964
2025-09-05 12:39:02,1456876
2025-09-05 12:39:02,1456827
2025-09-05 12:39:02,1456742
2025-09-05 12:39:02,1456711
2025-09-05 12:39:02,1456743
2025-09-05 12:39:02,1456709
2025-09-05 12:39:03,1456700
2025-09-05 12:39:03,1456720
2025-09-05 12:39:03,1456817
2025-09-05 12:39:03,1456784
2025-09-05 12:39:03,1456876
2025-09-05 12:39:03,1456979
2025-09-05 12:39:03,1457079
2025-09-05 12:39:03,1457206
2025-09-05 12:39:03,1457366
2025-09-05 12:39:03,1457483
2025-09-05 12:39:03,1457550
2025-09-05 12:39:03,1457697
2025-09-05 12:39:03,1457664
2025-09-05 12:39:03,1457751
2025-09-05 12:39:03,1457765
2025-09-05 12:39:03,1457818
2025-09-05 12:39:03,1457839
2025-09-05 12:39:03,1457873
2025-09-05 12:39:03,1457918
2025-09-05 12:39:03,1457947
2025-09-05 12:39:03,1457915
2025-09-05 12:39:03,1458152
2025-09-05 12:39:03,1458056
2025-09-05 12:39:03,1458195
2025-09-05 12:39:03,1458282
2025-09-05 12:39:03,1458474
2025-09-05 12:39:03,1458426
2025-09-05 12:39:03,1458585
2025-09-05 12:39:03,1458726
2025-09-05 12:39:03,1458816
2025-09-05 12:39:03,1458898
2025-09-05 12:39:03,1459101
2025-09-05 12:39:03,1459234
2025-09-05 12:39:03,1459294
2025-09-05 12:39:03,1459370
2025-09-05 12:39:03,1459521
2025-09-05 12:39:03,1459670
2025-09-05 12:39:03,1459744
2025-09-05 12:39:03,1459917
2025-09-05 12:39:03,1460080
2025-09-05 12:39:03,1460306
2025-09-05 12:39:03,1460335
2025-09-05 12:39:03,1460582
2025-09-05 12:39:03,1460643
2025-09-05 12:39:03,1460754
2025-09-05 12:39:03,1460889
2025-09-05 12:39:03,1461036
2025-09-05 12:39:03,1461283
2025-09-05 12:39:03,1461514
2025-09-05 12:39:03,1461612
2025-09-05 12:39:03,1461705
2025-09-05 12:39:03,1461875
2025-09-05 12:39:03,1461943
2025-09-05 12:39:03,1461898
2025-09-05 12:39:03,1461681
2025-09-05 12:39:03,1461539
2025-09-05 12:39:03,1461121
2025-09-05 12:39:03,1460659
2025-09-05 12:39:03,1459987
2025-09-05 12:39:03,1459431
2025-09-05 12:39:03,1458798
2025-09-05 12:39:03,1458488
2025-09-05 12:39:03,1458082
2025-09-05 12:39:03,1457660
2025-09-05 12:39:03,1457476
2025-09-05 12:39:03,1457354
2025-09-05 12:39:03,1457193
2025-09-05 12:39:03,1457139
2025-09-05 12:39:03,1457005
2025-09-05 12:39:03,1456926
2025-09-05 12:39:03,1456847
2025-09-05 12:39:03,1456788
2025-09-05 12:39:03,1456703
2025-09-05 12:39:03,1456711
2025-09-05 12:39:03,1456668
2025-09-05 12:39:03,1456620
2025-09-05 12:39:03,1456685
2025-09-05 12:39:03,1456685
2025-09-05 12:39:03,1456772
2025-09-05 12:39:03,1456871
2025-09-05 12:39:03,1456961
2025-09-05 12:39:03,1457044
2025-09-05 12:39:03,1457124
2025-09-05 12:39:03,1457255
2025-09-05 12:39:03,1457347
2025-09-05 12:39:03,1457384
2025-09-05 12:39:03,1457485
2025-09-05 12:39:03,1457556
2025-09-05 12:39:03,1457672
2025-09-05 12:39:03,1457697
2025-09-05 12:39:03,1457741
2025-09-05 12:39:03,1457757
2025-09-05 12:39:03,1457735
2025-09-05 12:39:03,1457781
2025-09-05 12:39:03,1457815
2025-09-05 12:39:03,1457901
2025-09-05 12:39:03,1457865
2025-09-05 12:39:03,1457966
2025-09-05 12:39:03,1458103
2025-09-05 12:39:03,1458113
2025-09-05 12:39:04,1458267
2025-09-05 12:39:04,1458416
2025-09-05 12:39:04,1458436
2025-09-05 12:39:04,1458581
2025-09-05 12:39:04,1458587
2025-09-05 12:39:04,1458757
2025-09-05 12:39:04,1458914
2025-09-05 12:39:04,1458877
2025-09-05 12:39:04,1459121
2025-09-05 12:39:04,1459208
2025-09-05 12:39:04,1459445
2025-09-05 12:39:04,1459438
2025-09-05 12:39:04,1459653
2025-09-05 12:39:04,1459761
2025-09-05 12:39:04,1459986
2025-09-05 12:39:04,1460065
2025-09-05 12:39:04,1460247
2025-09-05 12:39:04,1460364
2025-09-05 12:39:04,1460535
2025-09-05 12:39:04,1460679
2025-09-05 12:39:04,1460819
2025-09-05 12:39:04,1461025
2025-09-05 12:39:04,1461192
2025-09-05 12:39:04,1461259
2025-09-05 12:39:04,1461546
2025-09-05 12:39:04,1461741
2025-09-05 12:39:04,1461835
2025-09-05 12:39:04,1461951
2025-09-05 12:39:04,1461993
2025-09-05 12:39:04,1462075
2025-09-05 12:39:04,1462022
2025-09-05 12:39:04,1461720
2025-09-05 12:39:04,1461482
2025-09-05 12:39:04,1460996
2025-09-05 12:39:04,1460379
2025-09-05 12:39:04,1459744
2025-09-05 12:39:04,1459124
2025-09-05 12:39:04,1458629
2025-09-05 12:39:04,1458221
2025-09-05 12:39:04,1457806
2025-09-05 12:39:04,1457563
2025-09-05 12:39:04,1457224
2025-09-05 12:39:04,1457141
2025-09-05 12:39:04,1456951
2025-09-05 12:39:04,1456896
2025-09-05 12:39:04,1456756
2025-09-05 12:39:04,1456677
2025-09-05 12:39:04,1456612
2025-09-05 12:39:04,1456500
2025-09-05 12:39:04,1456457
2025-09-05 12:39:04,1456378
2025-09-05 12:39:04,1456409
2025-09-05 12:39:04,1456459
2025-09-05 12:39:04,1456479
2025-09-05 12:39:04,1456383
2025-09-05 12:39:04,1456445
2025-09-05 12:39:04,1456581
2025-09-05 12:39:04,1456715
2025-09-05 12:39:04,1456746
2025-09-05 12:39:04,1456830
2025-09-05 12:39:04,1456925
2025-09-05 12:39:04,1457004
2025-09-05 12:39:04,1457069
2025-09-05 12:39:04,1457171
2025-09-05 12:39:04,1457329
2025-09-05 12:39:04,1457349
2025-09-05 12:39:04,1457376
2025-09-05 12:39:04,1457387
2025-09-05 12:39:04,1457480
2025-09-05 12:39:04,1457577
2025-09-05 12:39:04,1457485
2025-09-05 12:39:04,1457534
2025-09-05 12:39:04,1457577
2025-09-05 12:39:04,1457637
2025-09-05 12:39:04,1457724
2025-09-05 12:39:04,1457805
2025-09-05 12:39:04,1457910
2025-09-05 12:39:04,1458014
2025-09-05 12:39:04,1458118
2025-09-05 12:39:04,1458259
2025-09-05 12:39:04,1458254
2025-09-05 12:39:04,1458453
2025-09-05 12:39:04,1458522
2025-09-05 12:39:04,1458539
2025-09-05 12:39:04,1458736
2025-09-05 12:39:04,1458876
2025-09-05 12:39:04,1458951
2025-09-05 12:39:04,1459200
2025-09-05 12:39:04,1459318
2025-09-05 12:39:04,1459529
2025-09-05 12:39:04,1459569
2025-09-05 12:39:04,1459824
2025-09-05 12:39:04,1459930
2025-09-05 12:39:04,1460056
2025-09-05 12:39:04,1460291
2025-09-05 12:39:04,1460460
2025-09-05 12:39:04,1460514
2025-09-05 12:39:04,1460704
2025-09-05 12:39:04,1460735
2025-09-05 12:39:04,1460986
2025-09-05 12:39:04,1461165
2025-09-05 12:39:04,1461373
2025-09-05 12:39:05,1461511
2025-09-05 12:39:05,1461755
2025-09-05 12:39:05,1461828
2025-09-05 12:39:05,1462030
2025-09-05 12:39:05,1462053
2025-09-05 12:39:05,1462137
2025-09-05 12:39:05,1461922
2025-09-05 12:39:05,1461622
2025-09-05 12:39:05,1461291
2025-09-05 12:39:05,1460725
2025-09-05 12:39:05,1460246
2025-09-05 12:39:05,1459582
2025-09-05 12:39:05,1459041
2025-09-05 12:39:05,1458469
2025-09-05 12:39:05,1458102
2025-09-05 12:39:05,1457758
2025-09-05 12:39:05,1457472
2025-09-05 12:39:05,1457263
2025-09-05 12:39:05,1457038
2025-09-05 12:39:05,1456904
2025-09-05 12:39:05,1456850
2025-09-05 12:39:05,1456787
2025-09-05 12:39:05,1456763
2025-09-05 12:39:05,1456752
2025-09-05 12:39:05,1456592
2025-09-05 12:39:05,1456491
2025-09-05 12:39:05,1456554
2025-09-05 12:39:05,1456552
2025-09-05 12:39:05,1456573
2025-09-05 12:39:05,1456474
2025-09-05 12:39:05,1456525
2025-09-05 12:39:05,1456555
2025-09-05 12:39:05,1456698
2025-09-05 12:39:05,1456841
2025-09-05 12:39:05,1456906
2025-09-05 12:39:05,1457018
2025-09-05 12:39:05,1457090
2025-09-05 12:39:05,1457235
2025-09-05 12:39:05,1457300
2025-09-05 12:39:05,1457339
2025-09-05 12:39:05,1457372
2025-09-05 12:39:05,1457461
2025-09-05 12:39:05,1457408
2025-09-05 12:39:05,1457543
2025-09-05 12:39:05,1457637
2025-09-05 12:39:05,1457678
2025-09-05 12:39:05,1457656
2025-09-05 12:39:05,1457739
2025-09-05 12:39:05,1457807
2025-09-05 12:39:05,1457834
2025-09-05 12:39:05,1457847
2025-09-05 12:39:05,1457962
2025-09-05 12:39:05,1458046
2025-09-05 12:39:05,1458193
2025-09-05 12:39:05,1458300
2025-09-05 12:39:05,1458456
2025-09-05 12:39:05,1458473
2025-09-05 12:39:05,1458653
2025-09-05 12:39:05,1458715
2025-09-05 12:39:05,1458793
2025-09-05 12:39:05,1458921
2025-09-05 12:39:05,1459113
2025-09-05 12:39:05,1459275
2025-09-05 12:39:05,1459409
2025-09-05 12:39:05,1459616
2025-09-05 12:39:05,1459642
2025-09-05 12:39:05,1459771
2025-09-05 12:39:05,1460026
2025-09-05 12:39:05,1460082
2025-09-05 12:39:05,1460236
2025-09-05 12:39:05,1460343
2025-09-05 12:39:05,1460576
2025-09-05 12:39:05,1460712
2025-09-05 12:39:05,1460886
2025-09-05 12:39:05,1461060
2025-09-05 12:39:05,1461287
2025-09-05 12:39:05,1461433
2025-09-05 12:39:05,1461594
2025-09-05 12:39:05,1461690
2025-09-05 12:39:05,1461917
2025-09-05 12:39:05,1462080
2025-09-05 12:39:05,1462206
2025-09-05 12:39:05,1462236
2025-09-05 12:39:05,1462090
2025-09-05 12:39:05,1461931
2025-09-05 12:39:05,1461560
2025-09-05 12:39:05,1461229
2025-09-05 12:39:05,1460664
2025-09-05 12:39:05,1460025
2025-09-05 12:39:05,1459343
2025-09-05 12:39:05,1458915
2025-09-05 12:39:05,1458405
2025-09-05 12:39:05,1458098
2025-09-05 12:39:05,1457758
2025-09-05 12:39:05,1457624
2025-09-05 12:39:05,1457284
2025-09-05 12:39:05,1457216
2025-09-05 12:39:05,1457126
2025-09-05 12:39:05,1457110
2025-09-05 12:39:05,1456852
2025-09-05 12:39:06,1456820
2025-09-05 12:39:06,1456828
2025-09-05 12:39:06,1456854
2025-09-05 12:39:06,1456796
2025-09-05 12:39:06,1456784
2025-09-05 12:39:06,1456747
2025-09-05 12:39:06,1456824
2025-09-05 12:39:06,1456852
2025-09-05 12:39:06,1456918
2025-09-05 12:39:06,1457011
2025-09-05 12:39:06,1457067
2025-09-05 12:39:06,1457102
2025-09-05 12:39:06,1457185
2025-09-05 12:39:06,1457326
2025-09-05 12:39:06,1457498
2025-09-05 12:39:06,1457601
2025-09-05 12:39:06,1457682
2025-09-05 12:39:06,1457689
2025-09-05 12:39:06,1457810
2025-09-05 12:39:06,1457797
2025-09-05 12:39:06,1457866
2025-09-05 12:39:06,1457955
2025-09-05 12:39:06,1457939
2025-09-05 12:39:06,1457983
2025-09-05 12:39:06,1457997
2025-09-05 12:39:06,1458071
2025-09-05 12:39:06,1458178
2025-09-05 12:39:06,1458218
2025-09-05 12:39:06,1458255
2025-09-05 12:39:06,1458428
2025-09-05 12:39:06,1458469
2025-09-05 12:39:06,1458706
2025-09-05 12:39:06,1458822
2025-09-05 12:39:06,1458702
2025-09-05 12:39:06,1458800
2025-09-05 12:39:06,1458958
2025-09-05 12:39:06,1459069
2025-09-05 12:39:06,1459259
2025-09-05 12:39:06,1459337
2025-09-05 12:39:06,1459466
2025-09-05 12:39:06,1459708
2025-09-05 12:39:06,1459819
2025-09-05 12:39:06,1459981
2025-09-05 12:39:06,1460074
2025-09-05 12:39:06,1460293
2025-09-05 12:39:06,1460396
2025-09-05 12:39:06,1460524
2025-09-05 12:39:06,1460787
2025-09-05 12:39:06,1461028
2025-09-05 12:39:06,1461183
2025-09-05 12:39:06,1461330
2025-09-05 12:39:06,1461384
2025-09-05 12:39:06,1461699
2025-09-05 12:39:06,1461887
2025-09-05 12:39:06,1461972
2025-09-05 12:39:06,1462152
2025-09-05 12:39:06,1462357
2025-09-05 12:39:06,1462465
2025-09-05 12:39:06,1462525
2025-09-05 12:39:06,1462514
2025-09-05 12:39:06,1462466
2025-09-05 12:39:06,1462194
2025-09-05 12:39:06,1461894
2025-09-05 12:39:06,1461362
2025-09-05 12:39:06,1460699
2025-09-05 12:39:06,1460069
2025-09-05 12:39:06,1459389
2025-09-05 12:39:06,1458874
2025-09-05 12:39:06,1458586
2025-09-05 12:39:06,1458191
2025-09-05 12:39:06,1458013
2025-09-05 12:39:06,1457789
2025-09-05 12:39:06,1457669
2025-09-05 12:39:06,1457471
2025-09-05 12:39:06,1457405
2025-09-05 12:39:06,1457313
2025-09-05 12:39:06,1457290
2025-09-05 12:39:06,1457276
2025-09-05 12:39:06,1457299
2025-09-05 12:39:06,1457227
2025-09-05 12:39:06,1457276
2025-09-05 12:39:06,1457342
2025-09-05 12:39:06,1457275
2025-09-05 12:39:06,1457334
2025-09-05 12:39:06,1457375
2025-09-05 12:39:06,1457388
2025-09-05 12:39:06,1457542
2025-09-05 12:39:06,1457745
2025-09-05 12:39:06,1457870
2025-09-05 12:39:06,1457928
2025-09-05 12:39:06,1458055
2025-09-05 12:39:06,1458220
2025-09-05 12:39:06,1458244
2025-09-05 12:39:06,1458395
2025-09-05 12:39:06,1458479
2025-09-05 12:39:06,1458650
2025-09-05 12:39:06,1458622
2025-09-05 12:39:06,1458609
2025-09-05 12:39:06,1458698
2025-09-05 12:39:07,1458673
2025-09-05 12:39:07,1458744
2025-09-05 12:39:07,1458756
2025-09-05 12:39:07,1458829
2025-09-05 12:39:07,1458939
2025-09-05 12:39:07,1458984
2025-09-05 12:39:07,1459057
2025-09-05 12:39:07,1459072
2025-09-05 12:39:07,1459285
2025-09-05 12:39:07,1459345
2025-09-05 12:39:07,1459525
2025-09-05 12:39:07,1459606
2025-09-05 12:39:07,1459632
2025-09-05 12:39:07,1459806
2025-09-05 12:39:07,1459937
2025-09-05 12:39:07,1460046
2025-09-05 12:39:07,1460104
2025-09-05 12:39:07,1460316
2025-09-05 12:39:07,1460436
2025-09-05 12:39:07,1460613
2025-09-05 12:39:07,1460714
2025-09-05 12:39:07,1460904
2025-09-05 12:39:07,1461020
2025-09-05 12:39:07,1461287
2025-09-05 12:39:07,1461341
2025-09-05 12:39:07,1461532
2025-09-05 12:39:07,1461679
2025-09-05 12:39:07,1461902
2025-09-05 12:39:07,1462104
2025-09-05 12:39:07,1462298
2025-09-05 12:39:07,1462404
2025-09-05 12:39:07,1462620
2025-09-05 12:39:07,1462672
2025-09-05 12:39:07,1462827
2025-09-05 12:39:07,1462873
2025-09-05 12:39:07,1462823
2025-09-05 12:39:07,1462587
2025-09-05 12:39:07,1462256
2025-09-05 12:39:07,1461845
2025-09-05 12:39:07,1461430
2025-09-05 12:39:07,1460785
2025-09-05 12:39:07,1460134
2025-09-05 12:39:07,1459635
2025-09-05 12:39:07,1459085
2025-09-05 12:39:07,1458735
2025-09-05 12:39:07,1458433
2025-09-05 12:39:07,1458220
2025-09-05 12:39:07,1458059
2025-09-05 12:39:07,1457881
2025-09-05 12:39:07,1457764
2025-09-05 12:39:07,1457774
2025-09-05 12:39:07,1457818
2025-09-05 12:39:07,1457686
2025-09-05 12:39:07,1457646
2025-09-05 12:39:07,1457657
2025-09-05 12:39:07,1457622
2025-09-05 12:39:07,1457641
2025-09-05 12:39:07,1457825
2025-09-05 12:39:07,1457767
2025-09-05 12:39:07,1457880
2025-09-05 12:39:07,1457852
2025-09-05 12:39:07,1457995
2025-09-05 12:39:07,1458119
2025-09-05 12:39:07,1458300
2025-09-05 12:39:07,1458427
2025-09-05 12:39:07,1458478
2025-09-05 12:39:07,1458639
2025-09-05 12:39:07,1458719
2025-09-05 12:39:07,1458879
2025-09-05 12:39:07,1458761
2025-09-05 12:39:07,1458905
2025-09-05 12:39:07,1458970
2025-09-05 12:39:07,1458912
2025-09-05 12:39:07,1459049
2025-09-05 12:39:07,1458993
2025-09-05 12:39:07,1459017
2025-09-05 12:39:07,1458992
2025-09-05 12:39:07,1459114
2025-09-05 12:39:07,1459075
2025-09-05 12:39:07,1459156
2025-09-05 12:39:07,1459277
2025-09-05 12:39:07,1459425
2025-09-05 12:39:07,1459540
2025-09-05 12:39:07,1459634
2025-09-05 12:39:07,1459697
2025-09-05 12:39:07,1459706
2025-09-05 12:39:07,1459875
2025-09-05 12:39:07,1459990
2025-09-05 12:39:07,1460051
2025-09-05 12:39:07,1460201
2025-09-05 12:39:07,1460462
2025-09-05 12:39:07,1460494
2025-09-05 12:39:07,1460789
2025-09-05 12:39:07,1460827
2025-09-05 12:39:07,1461029
2025-09-05 12:39:07,1461121
2025-09-05 12:39:07,1461270
2025-09-05 12:39:07,1461312
2025-09-05 12:39:07,1461491
2025-09-05 12:39:07,1461682
2025-09-05 12:39:08,1461888
2025-09-05 12:39:08,1462018
2025-09-05 12:39:08,1462276
2025-09-05 12:39:08,1462383
2025-09-05 12:39:08,1462391
2025-09-05 12:39:08,1462578
2025-09-05 12:39:08,1462657
2025-09-05 12:39:08,1462599
2025-09-05 12:39:08,1462368
2025-09-05 12:39:08,1462051
2025-09-05 12:39:08,1461634
2025-09-05 12:39:08,1461023
2025-09-05 12:39:08,1460404
2025-09-05 12:39:08,1459869
2025-09-05 12:39:08,1459246
2025-09-05 12:39:08,1458898
2025-09-05 12:39:08,1458521
2025-09-05 12:39:08,1458126
2025-09-05 12:39:08,1458071
2025-09-05 12:39:08,1457796
2025-09-05 12:39:08,1457654
2025-09-05 12:39:08,1457542
2025-09-05 12:39:08,1457397
2025-09-05 12:39:08,1457372
2025-09-05 12:39:08,1457287
2025-09-05 12:39:08,1457281
2025-09-05 12:39:08,1457255
2025-09-05 12:39:08,1457246
2025-09-05 12:39:08,1457173
2025-09-05 12:39:08,1457248
2025-09-05 12:39:08,1457295
2025-09-05 12:39:08,1457254
2025-09-05 12:39:08,1457289
2025-09-05 12:39:08,1457376
2025-09-05 12:39:08,1457473
2025-09-05 12:39:08,1457593
2025-09-05 12:39:08,1457762
2025-09-05 12:39:08,1457825
2025-09-05 12:39:08,1457983
2025-09-05 12:39:08,1457983
2025-09-05 12:39:08,1458052
2025-09-05 12:39:08,1458057
2025-09-05 12:39:08,1458161
2025-09-05 12:39:08,1458274
2025-09-05 12:39:08,1458206
2025-09-05 12:39:08,1458223
2025-09-05 12:39:08,1458348
2025-09-05 12:39:08,1458334
2025-09-05 12:39:08,1458372
2025-09-05 12:39:08,1458472
2025-09-05 12:39:08,1458513
2025-09-05 12:39:08,1458534
2025-09-05 12:39:08,1458648
2025-09-05 12:39:08,1458739
2025-09-05 12:39:08,1458845
2025-09-05 12:39:08,1458889
2025-09-05 12:39:08,1459076
2025-09-05 12:39:08,1459151
2025-09-05 12:39:08,1459192
2025-09-05 12:39:08,1459270
2025-09-05 12:39:08,1459448
2025-09-05 12:39:08,1459528
2025-09-05 12:39:08,1459742
2025-09-05 12:39:08,1459810
2025-09-05 12:39:08,1459949
2025-09-05 12:39:08,1460108
2025-09-05 12:39:08,1460257
2025-09-05 12:39:08,1460388
2025-09-05 12:39:08,1460613
2025-09-05 12:39:08,1460616
2025-09-05 12:39:08,1460757
2025-09-05 12:39:08,1460951
2025-09-05 12:39:08,1461230
2025-09-05 12:39:08,1461316
2025-09-05 12:39:08,1461456
2025-09-05 12:39:08,1461663
2025-09-05 12:39:08,1461717
2025-09-05 12:39:08,1461898
2025-09-05 12:39:08,1461924
2025-09-05 12:39:08,1461747
2025-09-05 12:39:08,1461571
2025-09-05 12:39:08,1461256
2025-09-05 12:39:08,1460842
2025-09-05 12:39:08,1460268
2025-09-05 12:39:08,1459630
2025-09-05 12:39:08,1459044
2025-09-05 12:39:08,1458569
2025-09-05 12:39:08,1458077
2025-09-05 12:39:08,1457804
2025-09-05 12:39:08,1457410
2025-09-05 12:39:08,1457282
2025-09-05 12:39:08,1457036
2025-09-05 12:39:08,1456898
2025-09-05 12:39:08,1456780
2025-09-05 12:39:08,1456673
2025-09-05 12:39:08,1456517
2025-09-05 12:39:08,1456524
2025-09-05 12:39:08,1456459
2025-09-05 12:39:08,1456478
2025-09-05 12:39:08,1456358
2025-09-05 12:39:09,1456382
2025-09-05 12:39:09,1456341
2025-09-05 12:39:09,1456282
2025-09-05 12:39:09,1456378
2025-09-05 12:39:09,1456414
2025-09-05 12:39:09,1456457
2025-09-05 12:39:09,1456598
2025-09-05 12:39:09,1456687
2025-09-05 12:39:09,1456688
2025-09-05 12:39:09,1456791
2025-09-05 12:39:09,1456826
2025-09-05 12:39:09,1457023
2025-09-05 12:39:09,1457057
2025-09-05 12:39:09,1457187
2025-09-05 12:39:09,1457227
2025-09-05 12:39:09,1457262
2025-09-05 12:39:09,1457213
2025-09-05 12:39:09,1457276
2025-09-05 12:39:09,1457454
2025-09-05 12:39:09,1457475
2025-09-05 12:39:09,1457339
2025-09-05 12:39:09,1457481
2025-09-05 12:39:09,1457495
2025-09-05 12:39:09,1457472
2025-09-05 12:39:09,1457629
2025-09-05 12:39:09,1457780
2025-09-05 12:39:09,1457807
2025-09-05 12:39:09,1457972
2025-09-05 12:39:09,1458008
2025-09-05 12:39:09,1458174
2025-09-05 12:39:09,1458166
2025-09-05 12:39:09,1458366
2025-09-05 12:39:09,1458451
2025-09-05 12:39:09,1458523
2025-09-05 12:39:09,1458651
2025-09-05 12:39:09,1458842
2025-09-05 12:39:09,1458921
2025-09-05 12:39:09,1459106
2025-09-05 12:39:09,1459261
2025-09-05 12:39:09,1459333
2025-09-05 12:39:09,1459525
2025-09-05 12:39:09,1459670
2025-09-05 12:39:09,1459799
2025-09-05 12:39:09,1459847
2025-09-05 12:39:09,1460054
2025-09-05 12:39:09,1460264
2025-09-05 12:39:09,1460409
2025-09-05 12:39:09,1460576
2025-09-05 12:39:09,1460704
2025-09-05 12:39:09,1460836
2025-09-05 12:39:09,1461024
2025-09-05 12:39:09,1461133
2025-09-05 12:39:09,1461086
2025-09-05 12:39:09,1460964
2025-09-05 12:39:09,1460682
2025-09-05 12:39:09,1460273
2025-09-05 12:39:09,1459727
2025-09-05 12:39:09,1459186
2025-09-05 12:39:09,1458517
2025-09-05 12:39:09,1458058
2025-09-05 12:39:09,1457550
2025-09-05 12:39:09,1457192
2025-09-05 12:39:09,1456844
2025-09-05 12:39:09,1456517
2025-09-05 12:39:09,1456363
2025-09-05 12:39:09,1456092
2025-09-05 12:39:09,1456078
2025-09-05 12:39:09,1455939
2025-09-05 12:39:09,1455923
2025-09-05 12:39:09,1455720
2025-09-05 12:39:09,1455604
2025-09-05 12:39:09,1455607
2025-09-05 12:39:09,1455527
2025-09-05 12:39:09,1455592
2025-09-05 12:39:09,1455535
2025-09-05 12:39:09,1455534
2025-09-05 12:39:09,1455573
2025-09-05 12:39:09,1455531
2025-09-05 12:39:09,1455584
2025-09-05 12:39:09,1455673
2025-09-05 12:39:09,1455799
2025-09-05 12:39:09,1455796
2025-09-05 12:39:09,1455891
2025-09-05 12:39:09,1455977
2025-09-05 12:39:09,1456053
2025-09-05 12:39:09,1456116
2025-09-05 12:39:09,1456259
2025-09-05 12:39:09,1456280
2025-09-05 12:39:09,1456382
2025-09-05 12:39:09,1456369
2025-09-05 12:39:09,1456534
2025-09-05 12:39:09,1456513
2025-09-05 12:39:09,1456467
2025-09-05 12:39:09,1456513
2025-09-05 12:39:09,1456513
2025-09-05 12:39:09,1456613
2025-09-05 12:39:09,1456545
2025-09-05 12:39:09,1456751
2025-09-05 12:39:09,1456808
2025-09-05 12:39:09,1456900
2025-09-05 12:39:10,1457002
2025-09-05 12:39:10,1457076
2025-09-05 12:39:10,1457124
2025-09-05 12:39:10,1457283
2025-09-05 12:39:10,1457312
2025-09-05 12:39:10,1457421
2025-09-05 12:39:10,1457583
2025-09-05 12:39:10,1457720
2025-09-05 12:39:10,1457820
2025-09-05 12:39:10,1457885
2025-09-05 12:39:10,1458154
2025-09-05 12:39:10,1458279
2025-09-05 12:39:10,1458420
2025-09-05 12:39:10,1458570
2025-09-05 12:39:10,1458609
2025-09-05 12:39:10,1458752
2025-09-05 12:39:10,1458867
2025-09-05 12:39:10,1459156
2025-09-05 12:39:10,1459162
2025-09-05 12:39:10,1459387
2025-09-05 12:39:10,1459544
2025-09-05 12:39:10,1459802
2025-09-05 12:39:10,1459816
2025-09-05 12:39:10,1460077
2025-09-05 12:39:10,1460147
2025-09-05 12:39:10,1460328
2025-09-05 12:39:10,1460399
2025-09-05 12:39:10,1460459
2025-09-05 12:39:10,1460352
2025-09-05 12:39:10,1460180
2025-09-05 12:39:10,1459767
2025-09-05 12:39:10,1459356
2025-09-05 12:39:10,1458750
2025-09-05 12:39:10,1458178
2025-09-05 12:39:10,1457617
2025-09-05 12:39:10,1457058
2025-09-05 12:39:10,1456691
2025-09-05 12:39:10,1456303
2025-09-05 12:39:10,1455911
2025-09-05 12:39:10,1455590
2025-09-05 12:39:10,1455548
2025-09-05 12:39:10,1455413
2025-09-05 12:39:10,1455246
2025-09-05 12:39:10,1455163
2025-09-05 12:39:10,1455056
2025-09-05 12:39:10,1454945
2025-09-05 12:39:10,1454906
2025-09-05 12:39:10,1454846
2025-09-05 12:39:10,1454733
2025-09-05 12:39:10,1454785
2025-09-05 12:39:10,1454826
2025-09-05 12:39:10,1454758
2025-09-05 12:39:10,1454838
2025-09-05 12:39:10,1454840
2025-09-05 12:39:10,1454948
2025-09-05 12:39:10,1454985
2025-09-05 12:39:10,1455086
2025-09-05 12:39:10,1455129
2025-09-05 12:39:10,1455329
2025-09-05 12:39:10,1455408
2025-09-05 12:39:10,1455481
2025-09-05 12:39:10,1455680
2025-09-05 12:39:10,1455669
2025-09-05 12:39:10,1455650
2025-09-05 12:39:10,1455787
2025-09-05 12:39:10,1455761
2025-09-05 12:39:10,1455701
2025-09-05 12:39:10,1455839
2025-09-05 12:39:10,1455830
2025-09-05 12:39:10,1455935
2025-09-05 12:39:10,1455899
2025-09-05 12:39:10,1456037
2025-09-05 12:39:10,1456086
2025-09-05 12:39:10,1456117
2025-09-05 12:39:10,1456207
2025-09-05 12:39:10,1456326
2025-09-05 12:39:10,1456390
2025-09-05 12:39:10,1456542
2025-09-05 12:39:10,1456506
2025-09-05 12:39:10,1456700
2025-09-05 12:39:10,1456779
2025-09-05 12:39:10,1456861
2025-09-05 12:39:10,1457019
2025-09-05 12:39:10,1457183
2025-09-05 12:39:10,1457230
2025-09-05 12:39:10,1457423
2025-09-05 12:39:10,1457482
2025-09-05 12:39:10,1457668
2025-09-05 12:39:10,1457853
2025-09-05 12:39:10,1458049
2025-09-05 12:39:10,1458100
2025-09-05 12:39:10,1458326
2025-09-05 12:39:10,1458463
2025-09-05 12:39:10,1458628
2025-09-05 12:39:10,1458722
2025-09-05 12:39:10,1458849
2025-09-05 12:39:10,1458955
2025-09-05 12:39:10,1459073
2025-09-05 12:39:10,1459310
2025-09-05 12:39:10,1459518
2025-09-05 12:39:10,1459749
2025-09-05 12:39:11,1459868
2025-09-05 12:39:11,1460050
2025-09-05 12:39:11,1460132
2025-09-05 12:39:11,1460214
2025-09-05 12:39:11,1460093
2025-09-05 12:39:11,1459827
2025-09-05 12:39:11,1459620
2025-09-05 12:39:11,1459045
2025-09-05 12:39:11,1458643
2025-09-05 12:39:11,1457824
2025-09-05 12:39:11,1457369
2025-09-05 12:39:11,1456808
2025-09-05 12:39:11,1456293
2025-09-05 12:39:11,1455922
2025-09-05 12:39:11,1455534
2025-09-05 12:39:11,1455317
2025-09-05 12:39:11,1455203
2025-09-05 12:39:11,1455061
2025-09-05 12:39:11,1455003
2025-09-05 12:39:11,1454867
2025-09-05 12:39:11,1454979
2025-09-05 12:39:11,1454857
2025-09-05 12:39:11,1454707
2025-09-05 12:39:11,1454702
2025-09-05 12:39:11,1454651
2025-09-05 12:39:11,1454644
2025-09-05 12:39:11,1454658
2025-09-05 12:39:11,1454712
2025-09-05 12:39:11,1454785
2025-09-05 12:39:11,1454787
2025-09-05 12:39:11,1454894
2025-09-05 12:39:11,1454994
2025-09-05 12:39:11,1455110
2025-09-05 12:39:11,1455238
2025-09-05 12:39:11,1455268
2025-09-05 12:39:11,1455405
2025-09-05 12:39:11,1455483
2025-09-05 12:39:11,1455557
2025-09-05 12:39:11,1455672
2025-09-05 12:39:11,1455637
2025-09-05 12:39:11,1455701
2025-09-05 12:39:11,1455889
2025-09-05 12:39:11,1455778
2025-09-05 12:39:11,1455800
2025-09-05 12:39:11,1455723
2025-09-05 12:39:11,1455789
2025-09-05 12:39:11,1455927
2025-09-05 12:39:11,1456002
2025-09-05 12:39:11,1455989
2025-09-05 12:39:11,1456100
2025-09-05 12:39:11,1456229
2025-09-05 12:39:11,1456277
2025-09-05 12:39:11,1456399
2025-09-05 12:39:11,1456512
2025-09-05 12:39:11,1456640
2025-09-05 12:39:11,1456778
2025-09-05 12:39:11,1456834
2025-09-05 12:39:11,1456898
2025-09-05 12:39:11,1457051
2025-09-05 12:39:11,1457200
2025-09-05 12:39:11,1457238
2025-09-05 12:39:11,1457513
2025-09-05 12:39:11,1457641
2025-09-05 12:39:11,1457734
2025-09-05 12:39:11,1457888
2025-09-05 12:39:11,1457962
2025-09-05 12:39:11,1458142
2025-09-05 12:39:11,1458315
2025-09-05 12:39:11,1458418
2025-09-05 12:39:11,1458640
2025-09-05 12:39:11,1458771
2025-09-05 12:39:11,1458924
2025-09-05 12:39:11,1459104
2025-09-05 12:39:11,1459289
2025-09-05 12:39:11,1459443
2025-09-05 12:39:11,1459539
2025-09-05 12:39:11,1459637
2025-09-05 12:39:11,1459710
2025-09-05 12:39:11,1459656
2025-09-05 12:39:11,1459319
2025-09-05 12:39:11,1459086
2025-09-05 12:39:11,1458655
2025-09-05 12:39:11,1458176
2025-09-05 12:39:11,1457428
2025-09-05 12:39:11,1456872
2025-09-05 12:39:11,1456314
2025-09-05 12:39:11,1455892
2025-09-05 12:39:11,1455599
2025-09-05 12:39:11,1455271
2025-09-05 12:39:11,1455105
2025-09-05 12:39:11,1454993
2025-09-05 12:39:11,1454774
2025-09-05 12:39:11,1454789
2025-09-05 12:39:11,1454715
2025-09-05 12:39:11,1454619
2025-09-05 12:39:11,1454603
2025-09-05 12:39:11,1454506
2025-09-05 12:39:11,1454532
2025-09-05 12:39:11,1454517
2025-09-05 12:39:11,1454459
2025-09-05 12:39:12,1454558
2025-09-05 12:39:12,1454612
2025-09-05 12:39:12,1454639
2025-09-05 12:39:12,1454818
2025-09-05 12:39:12,1454856
2025-09-05 12:39:12,1455045
2025-09-05 12:39:12,1455216
2025-09-05 12:39:12,1455292
2025-09-05 12:39:12,1455376
2025-09-05 12:39:12,1455370
2025-09-05 12:39:12,1455473
2025-09-05 12:39:12,1455611
2025-09-05 12:39:12,1455603
2025-09-05 12:39:12,1455751
2025-09-05 12:39:12,1455796
2025-09-05 12:39:12,1455887
2025-09-05 12:39:12,1455803
2025-09-05 12:39:12,1455842
2025-09-05 12:39:12,1455865
2025-09-05 12:39:12,1455987
2025-09-05 12:39:12,1455957
2025-09-05 12:39:12,1455934
2025-09-05 12:39:12,1456051
2025-09-05 12:39:12,1456126
2025-09-05 12:39:12,1456339
2025-09-05 12:39:12,1456326
2025-09-05 12:39:12,1456545
2025-09-05 12:39:12,1456597
2025-09-05 12:39:12,1456721
2025-09-05 12:39:12,1456795
2025-09-05 12:39:12,1456894
2025-09-05 12:39:12,1457103
2025-09-05 12:39:12,1457113
2025-09-05 12:39:12,1457231
2025-09-05 12:39:12,1457378
2025-09-05 12:39:12,1457522
2025-09-05 12:39:12,1457758
2025-09-05 12:39:12,1457903
2025-09-05 12:39:12,1458024
2025-09-05 12:39:12,1458142
2025-09-05 12:39:12,1458359
2025-09-05 12:39:12,1458436
2025-09-05 12:39:12,1458578
2025-09-05 12:39:12,1458789
2025-09-05 12:39:12,1458905
2025-09-05 12:39:12,1459073
2025-09-05 12:39:12,1459263
2025-09-05 12:39:12,1459453
2025-09-05 12:39:12,1459574
2025-09-05 12:39:12,1459658
2025-09-05 12:39:12,1459757
2025-09-05 12:39:12,1459720
2025-09-05 12:39:12,1459543
2025-09-05 12:39:12,1459292
2025-09-05 12:39:12,1458825
2025-09-05 12:39:12,1458404
2025-09-05 12:39:12,1457705
2025-09-05 12:39:12,1457111
2025-09-05 12:39:04,1456553
2025-09-05 12:39:11,1456008
2025-09-05 12:39:12,1455656
2025-09-05 12:39:12,1455332
2025-09-05 12:39:12,1455083
2025-09-05 12:39:12,1454841
2025-09-05 12:39:12,1454636
2025-09-05 12:39:12,1454502
2025-09-05 12:39:12,1454552
2025-09-05 12:39:12,1454378
2025-09-05 12:39:12,1454274
2025-09-05 12:39:12,1454205
2025-09-05 12:39:12,1454301
2025-09-05 12:39:12,1454176
2025-09-05 12:39:12,1454156
2025-09-05 12:39:12,1454104
2025-09-05 12:39:12,1454087
2025-09-05 12:39:12,1454063
2025-09-05 12:39:12,1454224
2025-09-05 12:39:12,1454201
2025-09-05 12:39:12,1454326
2025-09-05 12:39:12,1454397
2025-09-05 12:39:12,1454599
2025-09-05 12:39:12,1454631
2025-09-05 12:39:12,1454752
2025-09-05 12:39:12,1454808
2025-09-05 12:39:12,1454937
2025-09-05 12:39:12,1454989
2025-09-05 12:39:12,1455008
2025-09-05 12:39:12,1455108
2025-09-05 12:39:12,1455156
2025-09-05 12:39:12,1455160
2025-09-05 12:39:12,1455201
2025-09-05 12:39:12,1455203
2025-09-05 12:39:12,1455322
2025-09-05 12:39:12,1455342
2025-09-05 12:39:12,1455365
2025-09-05 12:39:12,1455391
2025-09-05 12:39:12,1455401
2025-09-05 12:39:12,1455587
2025-09-05 12:39:12,1455722
2025-09-05 12:39:12,1455765
2025-09-05 12:39:13,1455821
2025-09-05 12:39:13,1455936
2025-09-05 12:39:13,1456125
2025-09-05 12:39:13,1456170
2025-09-05 12:39:13,1456402
2025-09-05 12:39:13,1456465
2025-09-05 12:39:13,1456588
2025-09-05 12:39:13,1456651
2025-09-05 12:39:13,1456755
2025-09-05 12:39:13,1456962
2025-09-05 12:39:13,1457056
2025-09-05 12:39:13,1457237
2025-09-05 12:39:13,1457361
2025-09-05 12:39:13,1457563
2025-09-05 12:39:13,1457704
2025-09-05 12:39:13,1457875
2025-09-05 12:39:13,1458174
2025-09-05 12:39:13,1458206
2025-09-05 12:39:13,1458376
2025-09-05 12:39:13,1458601
2025-09-05 12:39:13,1458673
2025-09-05 12:39:13,1458746
2025-09-05 12:39:13,1458943
2025-09-05 12:39:13,1459141
2025-09-05 12:39:13,1459354
2025-09-05 12:39:13,1459398
2025-09-05 12:39:13,1459638
2025-09-05 12:39:13,1459587
2025-09-05 12:39:13,1459469
2025-09-05 12:39:13,1459192
2025-09-05 12:39:13,1458781
2025-09-05 12:39:13,1458359
2025-09-05 12:39:13,1457611
2025-09-05 12:39:13,1456998
2025-09-05 12:39:13,1456467
2025-09-05 12:39:13,1455940
2025-09-05 12:39:13,1455559
2025-09-05 12:39:13,1455238
2025-09-05 12:39:13,1454941
2025-09-05 12:39:13,1454651
2025-09-05 12:39:13,1454448
2025-09-05 12:39:13,1454390
2025-09-05 12:39:13,1454315
2025-09-05 12:39:13,1454143
2025-09-05 12:39:13,1454061
2025-09-05 12:39:13,1453936
2025-09-05 12:39:13,1453850
2025-09-05 12:39:13,1453890
2025-09-05 12:39:13,1453962
2025-09-05 12:39:13,1453784
2025-09-05 12:39:13,1453837
2025-09-05 12:39:13,1453849
2025-09-05 12:39:13,1453915
2025-09-05 12:39:13,1453934
2025-09-05 12:39:13,1454042
2025-09-05 12:39:13,1454139
2025-09-05 12:39:13,1454259
2025-09-05 12:39:13,1454283
2025-09-05 12:39:13,1454371
2025-09-05 12:39:13,1454578
2025-09-05 12:39:13,1454652
2025-09-05 12:39:13,1454750
2025-09-05 12:39:13,1454756
2025-09-05 12:39:13,1454814
2025-09-05 12:39:13,1454862
2025-09-05 12:39:13,1454993
2025-09-05 12:39:13,1454920
2025-09-05 12:39:13,1455032
2025-09-05 12:39:13,1455029
2025-09-05 12:39:13,1455087
2025-09-05 12:39:13,1455203
2025-09-05 12:39:13,1455183
2025-09-05 12:39:13,1455360
2025-09-05 12:39:13,1455339
2025-09-05 12:39:13,1455423
2025-09-05 12:39:13,1455609
2025-09-05 12:39:13,1455638
2025-09-05 12:39:13,1455863
2025-09-05 12:39:13,1455886
2025-09-05 12:39:13,1455945
2025-09-05 12:39:13,1456086
2025-09-05 12:39:13,1456100
2025-09-05 12:39:13,1456315
2025-09-05 12:39:13,1456394
2025-09-05 12:39:13,1456630
2025-09-05 12:39:13,1456760
2025-09-05 12:39:13,1456802
2025-09-05 12:39:13,1457038
2025-09-05 12:39:13,1457150
2025-09-05 12:39:13,1457301
2025-09-05 12:39:13,1457443
2025-09-05 12:39:13,1457616
2025-09-05 12:39:13,1457751
2025-09-05 12:39:13,1457962
2025-09-05 12:39:13,1458078
2025-09-05 12:39:13,1458259
2025-09-05 12:39:13,1458396
2025-09-05 12:39:13,1458577
2025-09-05 12:39:13,1458712
2025-09-05 12:39:13,1458975
2025-09-05 12:39:14,1459158
2025-09-05 12:39:14,1459239
2025-09-05 12:39:14,1459337
2025-09-05 12:39:14,1459496
2025-09-05 12:39:14,1459586
2025-09-05 12:39:14,1459578
2025-09-05 12:39:14,1459380
2025-09-05 12:39:14,1459087
2025-09-05 12:39:14,1458537
2025-09-05 12:39:14,1457963
2025-09-05 12:39:14,1457369
2025-09-05 12:39:14,1456773
2025-09-05 12:39:14,1456206
2025-09-05 12:39:14,1455627
2025-09-05 12:39:14,1455274
2025-09-05 12:39:14,1455020
2025-09-05 12:39:14,1454741
2025-09-05 12:39:14,1454618
2025-09-05 12:39:14,1454471
2025-09-05 12:39:14,1454295
2025-09-05 12:39:14,1454231
2025-09-05 12:39:14,1454188
2025-09-05 12:39:14,1454131
2025-09-05 12:39:14,1453966
2025-09-05 12:39:14,1454030
2025-09-05 12:39:14,1453912
2025-09-05 12:39:14,1453845
2025-09-05 12:39:14,1453818
2025-09-05 12:39:14,1453892
2025-09-05 12:39:14,1453994
2025-09-05 12:39:14,1454037
2025-09-05 12:39:14,1454209
2025-09-05 12:39:14,1454221
2025-09-05 12:39:14,1454274
2025-09-05 12:39:14,1454443
2025-09-05 12:39:14,1454579
2025-09-05 12:39:14,1454658
2025-09-05 12:39:14,1454683
2025-09-05 12:39:14,1454845
2025-09-05 12:39:14,1454858
2025-09-05 12:39:14,1454903
2025-09-05 12:39:14,1455029
2025-09-05 12:39:14,1455125
2025-09-05 12:39:14,1455056
2025-09-05 12:39:14,1455169
2025-09-05 12:39:14,1455158
2025-09-05 12:39:14,1455259
2025-09-05 12:39:14,1455316
2025-09-05 12:39:14,1455311
2025-09-05 12:39:14,1455335
2025-09-05 12:39:14,1455511
2025-09-05 12:39:14,1455592
2025-09-05 12:39:14,1455740
2025-09-05 12:39:14,1455751
2025-09-05 12:39:14,1455843
2025-09-05 12:39:14,1455886
2025-09-05 12:39:14,1456048
2025-09-05 12:39:14,1456178
2025-09-05 12:39:14,1456410
2025-09-05 12:39:14,1456442
2025-09-05 12:39:14,1456563
2025-09-05 12:39:14,1456802
2025-09-05 12:39:14,1456902
2025-09-05 12:39:14,1457079
2025-09-05 12:39:14,1457203
2025-09-05 12:39:14,1457388
2025-09-05 12:39:14,1457501
2025-09-05 12:39:14,1457694
2025-09-05 12:39:14,1457871
2025-09-05 12:39:14,1458060
2025-09-05 12:39:14,1458182
2025-09-05 12:39:14,1458296
2025-09-05 12:39:14,1458561
2025-09-05 12:39:14,1458594
2025-09-05 12:39:14,1458846
2025-09-05 12:39:14,1459032
2025-09-05 12:39:14,1459179
2025-09-05 12:39:14,1459427
2025-09-05 12:39:14,1459649
2025-09-05 12:39:14,1459776
2025-09-05 12:39:14,1459962
2025-09-05 12:39:14,1460008
2025-09-05 12:39:14,1459970
2025-09-05 12:39:14,1459912
2025-09-05 12:39:14,1459670
2025-09-05 12:39:14,1459251
2025-09-05 12:39:14,1458865
2025-09-05 12:39:14,1458253
2025-09-05 12:39:14,1457536
2025-09-05 12:39:14,1456920
2025-09-05 12:39:14,1456296
2025-09-05 12:39:14,1455876
2025-09-05 12:39:14,1455504
2025-09-05 12:39:14,1455250
2025-09-05 12:39:14,1455158
2025-09-05 12:39:14,1454845
2025-09-05 12:39:14,1454758
2025-09-05 12:39:14,1454568
2025-09-05 12:39:14,1454666
2025-09-05 12:39:14,1454517
2025-09-05 12:39:15,1454540
2025-09-05 12:39:15,1454493
2025-09-05 12:39:15,1454509
2025-09-05 12:39:15,1454424
2025-09-05 12:39:15,1454426
2025-09-05 12:39:15,1454613
2025-09-05 12:39:15,1454571
2025-09-05 12:39:15,1454595
2025-09-05 12:39:15,1454734
2025-09-05 12:39:15,1454949
2025-09-05 12:39:15,1454971
2025-09-05 12:39:15,1455164
2025-09-05 12:39:15,1455210
2025-09-05 12:39:15,1455348
2025-09-05 12:39:15,1455548
2025-09-05 12:39:15,1455596
2025-09-05 12:39:15,1455678
2025-09-05 12:39:15,1455689
2025-09-05 12:39:15,1455807
2025-09-05 12:39:15,1455845
2025-09-05 12:39:15,1455898
2025-09-05 12:39:15,1455860
2025-09-05 12:39:15,1455838
2025-09-05 12:39:15,1455962
2025-09-05 12:39:15,1455954
2025-09-05 12:39:15,1455980
2025-09-05 12:39:15,1456190
2025-09-05 12:39:15,1456234
2025-09-05 12:39:15,1456243
2025-09-05 12:39:15,1456288
2025-09-05 12:39:15,1456457
2025-09-05 12:39:15,1456576
2025-09-05 12:39:15,1456689
2025-09-05 12:39:15,1456809
2025-09-05 12:39:15,1456869
2025-09-05 12:39:15,1456952
2025-09-05 12:39:15,1457124
2025-09-05 12:39:15,1457329
2025-09-05 12:39:15,1457364
2025-09-05 12:39:15,1457503
2025-09-05 12:39:15,1457629
2025-09-05 12:39:15,1457865
2025-09-05 12:39:15,1458009
2025-09-05 12:39:15,1458138
2025-09-05 12:39:15,1458334
2025-09-05 12:39:15,1458471
2025-09-05 12:39:15,1458586
2025-09-05 12:39:15,1458723
2025-09-05 12:39:15,1458834
2025-09-05 12:39:15,1459128
2025-09-05 12:39:15,1459295
2025-09-05 12:39:15,1459475
2025-09-05 12:39:15,1459628
2025-09-05 12:39:15,1459661
2025-09-05 12:39:15,1459805
2025-09-05 12:39:15,1459836
2025-09-05 12:39:15,1459734
2025-09-05 12:39:15,1459577
2025-09-05 12:39:15,1459149
2025-09-05 12:39:15,1458740
2025-09-05 12:39:15,1458201
2025-09-05 12:39:15,1457639
2025-09-05 12:39:15,1457005
2025-09-05 12:39:15,1456459
2025-09-05 12:39:15,1456027
2025-09-05 12:39:15,1455654
2025-09-05 12:39:15,1455256
2025-09-05 12:39:15,1455060
2025-09-05 12:39:15,1455003
2025-09-05 12:39:15,1454841
2025-09-05 12:39:15,1454671
2025-09-05 12:39:15,1454606
2025-09-05 12:39:15,1454542
2025-09-05 12:39:15,1454436
2025-09-05 12:39:15,1454432
2025-09-05 12:39:15,1454447
2025-09-05 12:39:15,1454540
2025-09-05 12:39:15,1454471
2025-09-05 12:39:15,1454443
2025-09-05 12:39:15,1454472
2025-09-05 12:39:15,1454524
2025-09-05 12:39:15,1454625
2025-09-05 12:39:15,1454703
2025-09-05 12:39:15,1454785
2025-09-05 12:39:15,1454905
2025-09-05 12:39:15,1455017
2025-09-05 12:39:15,1455112
2025-09-05 12:39:15,1455308
2025-09-05 12:39:15,1455500
2025-09-05 12:39:15,1455447
2025-09-05 12:39:15,1455644
2025-09-05 12:39:15,1455581
2025-09-05 12:39:15,1455607
2025-09-05 12:39:15,1455706
2025-09-05 12:39:15,1455718
2025-09-05 12:39:15,1455600
2025-09-05 12:39:15,1455662
2025-09-05 12:39:15,1455771
2025-09-05 12:39:15,1455784
2025-09-05 12:39:15,1455901
2025-09-05 12:39:16,1455941
2025-09-05 12:39:16,1456012
2025-09-05 12:39:16,1456084
2025-09-05 12:39:16,1456302
2025-09-05 12:39:16,1456425
2025-09-05 12:39:16,1456526
2025-09-05 12:39:16,1456595
2025-09-05 12:39:16,1456643
2025-09-05 12:39:16,1456828
2025-09-05 12:39:16,1456845
2025-09-05 12:39:16,1456969
2025-09-05 12:39:16,1457147
2025-09-05 12:39:16,1457348
2025-09-05 12:39:16,1457458
2025-09-05 12:39:16,1457639
2025-09-05 12:39:16,1457782
2025-09-05 12:39:16,1457953
2025-09-05 12:39:16,1458111
2025-09-05 12:39:16,1458219
2025-09-05 12:39:16,1458392
2025-09-05 12:39:16,1458502
2025-09-05 12:39:16,1458705
2025-09-05 12:39:16,1458758
2025-09-05 12:39:16,1459099
2025-09-05 12:39:16,1459250
2025-09-05 12:39:16,1459372
2025-09-05 12:39:16,1459495
2025-09-05 12:39:16,1459638
2025-09-05 12:39:16,1459787
2025-09-05 12:39:16,1459912
2025-09-05 12:39:16,1459956
2025-09-05 12:39:16,1459669
2025-09-05 12:39:16,1459582
2025-09-05 12:39:16,1459211
2025-09-05 12:39:16,1458694
2025-09-05 12:39:16,1458106
2025-09-05 12:39:16,1457365
2025-09-05 12:39:16,1456732
2025-09-05 12:39:16,1456327
2025-09-05 12:39:16,1455806
2025-09-05 12:39:16,1455461
2025-09-05 12:39:16,1455235
2025-09-05 12:39:16,1454855
2025-09-05 12:39:16,1454761
2025-09-05 12:39:16,1454617
2025-09-05 12:39:16,1454427
2025-09-05 12:39:16,1454378
2025-09-05 12:39:16,1454295
2025-09-05 12:39:16,1454147
2025-09-05 12:39:16,1454177
2025-09-05 12:39:16,1454205
2025-09-05 12:39:16,1454173
2025-09-05 12:39:16,1454118
2025-09-05 12:39:16,1454055
2025-09-05 12:39:16,1454195
2025-09-05 12:39:16,1454134
2025-09-05 12:39:16,1454134
2025-09-05 12:39:16,1454177
2025-09-05 12:39:16,1454221
2025-09-05 12:39:16,1454464
2025-09-05 12:39:16,1454661
2025-09-05 12:39:16,1454681
2025-09-05 12:39:16,1454795
2025-09-05 12:39:16,1454836
2025-09-05 12:39:16,1454919
2025-09-05 12:39:16,1455045
2025-09-05 12:39:16,1455012
2025-09-05 12:39:16,1455105
2025-09-05 12:39:16,1455189
2025-09-05 12:39:16,1455245
2025-09-05 12:39:16,1455290
2025-09-05 12:39:16,1455358
2025-09-05 12:39:16,1455329
2025-09-05 12:39:16,1455352
2025-09-05 12:39:16,1455478
2025-09-05 12:39:16,1455537
2025-09-05 12:39:16,1455606
2025-09-05 12:39:16,1455724
2025-09-05 12:39:16,1455750
2025-09-05 12:39:16,1455915
2025-09-05 12:39:16,1456006
2025-09-05 12:39:16,1456004
2025-09-05 12:39:16,1456209
2025-09-05 12:39:16,1456323
2025-09-05 12:39:16,1456499
2025-09-05 12:39:16,1456511
2025-09-05 12:39:16,1456662
2025-09-05 12:39:16,1456778
2025-09-05 12:39:16,1456963
2025-09-05 12:39:16,1457042
2025-09-05 12:39:16,1457312
2025-09-05 12:39:16,1457452
2025-09-05 12:39:16,1457529
2025-09-05 12:39:16,1457690
2025-09-05 12:39:16,1457931
2025-09-05 12:39:16,1458037
2025-09-05 12:39:16,1458146
2025-09-05 12:39:16,1458289
2025-09-05 12:39:16,1458512
2025-09-05 12:39:16,1458655
2025-09-05 12:39:17,1458845
2025-09-05 12:39:17,1458975
2025-09-05 12:39:17,1459172
2025-09-05 12:39:17,1459298
2025-09-05 12:39:17,1459507
2025-09-05 12:39:17,1459519
2025-09-05 12:39:17,1459605
2025-09-05 12:39:17,1459452
2025-09-05 12:39:17,1459264
2025-09-05 12:39:17,1458862
2025-09-05 12:39:17,1458468
2025-09-05 12:39:17,1457761
2025-09-05 12:39:17,1457061
2025-09-05 12:39:17,1456476
2025-09-05 12:39:17,1456010
2025-09-05 12:39:17,1455590
2025-09-05 12:39:17,1455180
2025-09-05 12:39:17,1454841
2025-09-05 12:39:17,1454642
2025-09-05 12:39:17,1454462
2025-09-05 12:39:17,1454364
2025-09-05 12:39:17,1454203
2025-09-05 12:39:17,1454165
2025-09-05 12:39:17,1454014
2025-09-05 12:39:17,1453975
2025-09-05 12:39:17,1453906
2025-09-05 12:39:17,1453863
2025-09-05 12:39:17,1453908
2025-09-05 12:39:17,1453822
2025-09-05 12:39:17,1453825
2025-09-05 12:39:17,1453889
2025-09-05 12:39:17,1453954
2025-09-05 12:39:17,1453940
2025-09-05 12:39:17,1453989
2025-09-05 12:39:17,1454080
2025-09-05 12:39:17,1454162
2025-09-05 12:39:17,1454336
2025-09-05 12:39:17,1454365
2025-09-05 12:39:17,1454687
2025-09-05 12:39:17,1454664
2025-09-05 12:39:17,1454757
2025-09-05 12:39:17,1454823
2025-09-05 12:39:17,1454872
2025-09-05 12:39:17,1454927
2025-09-05 12:39:17,1454921
2025-09-05 12:39:17,1455003
2025-09-05 12:39:17,1455016
2025-09-05 12:39:17,1455084
2025-09-05 12:39:17,1455099
2025-09-05 12:39:17,1455217
2025-09-05 12:39:17,1455259
2025-09-05 12:39:17,1455281
2025-09-05 12:39:17,1455329
2025-09-05 12:39:17,1455401
2025-09-05 12:39:17,1455554
2025-09-05 12:39:17,1455708
2025-09-05 12:39:17,1455863
2025-09-05 12:39:17,1455858
2025-09-05 12:39:17,1455947
2025-09-05 12:39:17,1456096
2025-09-05 12:39:17,1456192
2025-09-05 12:39:17,1456413
2025-09-05 12:39:17,1456440
2025-09-05 12:39:17,1456645
2025-09-05 12:39:17,1456833
2025-09-05 12:39:17,1456866
2025-09-05 12:39:17,1457018
2025-09-05 12:39:17,1457255
2025-09-05 12:39:17,1457317
2025-09-05 12:39:17,1457487
2025-09-05 12:39:17,1457651
2025-09-05 12:39:17,1457805
2025-09-05 12:39:17,1458012
2025-09-05 12:39:17,1458012
2025-09-05 12:39:17,1458209
2025-09-05 12:39:17,1458400
2025-09-05 12:39:17,1458567
2025-09-05 12:39:17,1458781
2025-09-05 12:39:17,1458859
2025-09-05 12:39:17,1459072
2025-09-05 12:39:17,1459178
2025-09-05 12:39:17,1459350
2025-09-05 12:39:17,1459419
2025-09-05 12:39:17,1459458
2025-09-05 12:39:17,1459280
2025-09-05 12:39:17,1458951
2025-09-05 12:39:17,1458521
2025-09-05 12:39:17,1458003
2025-09-05 12:39:17,1457413
2025-09-05 12:39:17,1456729
2025-09-05 12:39:17,1456138
2025-09-05 12:39:17,1455664
2025-09-05 12:39:17,1455151
2025-09-05 12:39:17,1454810
2025-09-05 12:39:17,1454607
2025-09-05 12:39:17,1454463
2025-09-05 12:39:17,1454155
2025-09-05 12:39:17,1454081
2025-09-05 12:39:17,1454029
2025-09-05 12:39:17,1453915
2025-09-05 12:39:18,1453777
2025-09-05 12:39:18,1453745
2025-09-05 12:39:18,1453601
2025-09-05 12:39:18,1453714
2025-09-05 12:39:18,1453609
2025-09-05 12:39:18,1453592
2025-09-05 12:39:18,1453650
2025-09-05 12:39:18,1453744
2025-09-05 12:39:18,1453782
2025-09-05 12:39:18,1453833
2025-09-05 12:39:18,1453946
2025-09-05 12:39:18,1454058
2025-09-05 12:39:18,1454167
2025-09-05 12:39:18,1454234
2025-09-05 12:39:18,1454294
2025-09-05 12:39:18,1454401
2025-09-05 12:39:18,1454484
2025-09-05 12:39:18,1454619
2025-09-05 12:39:18,1454656
2025-09-05 12:39:18,1454669
2025-09-05 12:39:18,1454699
2025-09-05 12:39:18,1454842
2025-09-05 12:39:18,1454829
2025-09-05 12:39:18,1454834
2025-09-05 12:39:18,1454842
2025-09-05 12:39:18,1454907
2025-09-05 12:39:18,1455014
2025-09-05 12:39:18,1454947
2025-09-05 12:39:18,1455049
2025-09-05 12:39:18,1455184
2025-09-05 12:39:18,1455203
2025-09-05 12:39:18,1455335
2025-09-05 12:39:18,1455532
2025-09-05 12:39:18,1455587
2025-09-05 12:39:18,1455710
2025-09-05 12:39:18,1455822
2025-09-05 12:39:18,1455916
2025-09-05 12:39:18,1455988
2025-09-05 12:39:18,1456031
2025-09-05 12:39:18,1456176
2025-09-05 12:39:18,1456441
2025-09-05 12:39:18,1456571
2025-09-05 12:39:18,1456657
2025-09-05 12:39:18,1456818
2025-09-05 12:39:18,1456990
2025-09-05 12:39:18,1457137
2025-09-05 12:39:18,1457373
2025-09-05 12:39:18,1457443
2025-09-05 12:39:18,1457649
2025-09-05 12:39:18,1457747
2025-09-05 12:39:18,1457893
2025-09-05 12:39:18,1458073
2025-09-05 12:39:18,1458303
2025-09-05 12:39:18,1458497
2025-09-05 12:39:18,1458676
2025-09-05 12:39:18,1458725
2025-09-05 12:39:18,1458902
2025-09-05 12:39:18,1458978
2025-09-05 12:39:18,1458972
2025-09-05 12:39:18,1458836
2025-09-05 12:39:18,1458597
2025-09-05 12:39:18,1458219
2025-09-05 12:39:18,1457706
2025-09-05 12:39:18,1457086
2025-09-05 12:39:18,1456384
2025-09-05 12:39:18,1455781
2025-09-05 12:39:18,1455203
2025-09-05 12:39:18,1454797
2025-09-05 12:39:18,1454481
2025-09-05 12:39:18,1454321
2025-09-05 12:39:18,1454119
2025-09-05 12:39:18,1453954
2025-09-05 12:39:18,1453821
2025-09-05 12:39:18,1453698
2025-09-05 12:39:18,1453634
2025-09-05 12:39:18,1453642
2025-09-05 12:39:18,1453550
2025-09-05 12:39:18,1453563
2025-09-05 12:39:18,1453499
2025-09-05 12:39:18,1453539
2025-09-05 12:39:18,1453560
2025-09-05 12:39:18,1453611
2025-09-05 12:39:18,1453685
2025-09-05 12:39:18,1453787
2025-09-05 12:39:18,1453882
2025-09-05 12:39:18,1454069
2025-09-05 12:39:18,1454173
2025-09-05 12:39:18,1454307
2025-09-05 12:39:18,1454355
2025-09-05 12:39:18,1454558
2025-09-05 12:39:18,1454587
2025-09-05 12:39:18,1454680
2025-09-05 12:39:18,1454773
2025-09-05 12:39:18,1454741
2025-09-05 12:39:18,1454902
2025-09-05 12:39:18,1454886
2025-09-05 12:39:18,1454819
2025-09-05 12:39:18,1454860
2025-09-05 12:39:18,1455026
2025-09-05 12:39:18,1454953
2025-09-05 12:39:19,1454955
2025-09-05 12:39:19,1455045
2025-09-05 12:39:19,1455163
2025-09-05 12:39:19,1455196
2025-09-05 12:39:19,1455332
2025-09-05 12:39:19,1455415
2025-09-05 12:39:19,1455474
2025-09-05 12:39:19,1455593
2025-09-05 12:39:19,1455640
2025-09-05 12:39:19,1455817
2025-09-05 12:39:19,1455965
2025-09-05 12:39:19,1456107
2025-09-05 12:39:19,1456095
2025-09-05 12:39:19,1456343
2025-09-05 12:39:19,1456477
2025-09-05 12:39:19,1456597
2025-09-05 12:39:19,1456718
2025-09-05 12:39:19,1456869
2025-09-05 12:39:19,1457008
2025-09-05 12:39:19,1457124
2025-09-05 12:39:19,1457308
2025-09-05 12:39:19,1457497
2025-09-05 12:39:19,1457719
2025-09-05 12:39:19,1457742
2025-09-05 12:39:19,1457993
2025-09-05 12:39:19,1458076
2025-09-05 12:39:19,1458281
2025-09-05 12:39:19,1458361
2025-09-05 12:39:19,1458543
2025-09-05 12:39:19,1458626
2025-09-05 12:39:19,1458721
2025-09-05 12:39:19,1458649
2025-09-05 12:39:19,1458477
2025-09-05 12:39:19,1458175
2025-09-05 12:39:19,1457706
2025-09-05 12:39:19,1457137
2025-09-05 12:39:19,1456565
2025-09-05 12:39:19,1455883
2025-09-05 12:39:19,1455416
2025-09-05 12:39:19,1454805
2025-09-05 12:39:19,1454502
2025-09-05 12:39:19,1454141
2025-09-05 12:39:19,1453916
