timestamp,value
2025-09-11 10:29:03,157248
2025-09-11 10:29:03,157248
2025-09-11 10:29:03,122727
2025-09-11 10:29:03,122674
2025-09-11 10:29:03,122652
2025-09-11 10:29:03,122624
2025-09-11 10:29:03,122617
2025-09-11 10:29:03,122532
2025-09-11 10:29:03,122559
2025-09-11 10:29:03,122564
2025-09-11 10:29:03,122575
2025-09-11 10:29:03,122573
2025-09-11 10:29:03,122533
2025-09-11 10:29:03,122537
2025-09-11 10:29:03,122551
2025-09-11 10:29:03,122568
2025-09-11 10:29:03,122566
2025-09-11 10:29:03,122550
2025-09-11 10:29:03,122523
2025-09-11 10:29:03,122564
2025-09-11 10:29:03,122584
2025-09-11 10:29:03,122552
2025-09-11 10:29:03,122563
2025-09-11 10:29:03,122593
2025-09-11 10:29:03,122610
2025-09-11 10:29:03,70156
2025-09-11 10:29:03,178551
2025-09-11 10:29:03,178548
2025-09-11 10:29:03,178618
2025-09-11 10:29:03,178622
2025-09-11 10:29:03,178623
2025-09-11 10:29:03,178699
2025-09-11 10:29:03,178788
2025-09-11 10:29:04,178707
2025-09-11 10:29:04,178775
2025-09-11 10:29:04,178821
2025-09-11 10:29:04,178828
2025-09-11 10:29:04,178768
2025-09-11 10:29:04,178704
2025-09-11 10:29:04,432061
2025-09-11 10:29:04,337871
2025-09-11 10:29:04,337839
2025-09-11 10:29:04,337950
2025-09-11 10:29:04,338098
2025-09-11 10:29:04,338281
2025-09-11 10:29:04,338344
2025-09-11 10:29:04,338252
2025-09-11 10:29:04,338319
2025-09-11 10:29:04,338347
2025-09-11 10:29:04,338259
2025-09-11 10:29:04,338242
2025-09-11 10:29:04,338236
2025-09-11 10:29:04,338283
2025-09-11 10:29:04,1672990
2025-09-11 10:29:04,1701268
2025-09-11 10:29:04,1701231
2025-09-11 10:29:04,1701398
2025-09-11 10:29:04,1701543
2025-09-11 10:29:04,1701487
2025-09-11 10:29:04,1701265
2025-09-11 10:29:04,1701236
2025-09-11 10:29:04,1701500
2025-09-11 10:29:04,1701720
2025-09-11 10:29:04,1701695
2025-09-11 10:29:04,1701583
2025-09-11 10:29:04,1701492
2025-09-11 10:29:04,1701438
2025-09-11 10:29:04,1712314
2025-09-11 10:29:04,1699925
2025-09-11 10:29:04,1699919
2025-09-11 10:29:04,1699922
2025-09-11 10:29:04,1699776
2025-09-11 10:29:04,1699372
2025-09-11 10:29:04,1699263
2025-09-11 10:29:04,1699137
2025-09-11 10:29:04,1699255
2025-09-11 10:29:04,1699395
2025-09-11 10:29:04,1699519
2025-09-11 10:29:04,1699536
2025-09-11 10:29:04,1699457
2025-09-11 10:29:04,1699318
2025-09-11 10:29:04,1699183
2025-09-11 10:29:04,1699370
2025-09-11 10:29:04,1699463
2025-09-11 10:29:04,1699667
2025-09-11 10:29:04,1699992
2025-09-11 10:29:04,1700416
2025-09-11 10:29:04,1700913
2025-09-11 10:29:04,1701202
2025-09-11 10:29:04,1701050
2025-09-11 10:29:04,1700500
2025-09-11 10:29:04,1699405
2025-09-11 10:29:04,1698526
2025-09-11 10:29:04,1697869
2025-09-11 10:29:04,1697372
2025-09-11 10:29:04,1697317
2025-09-11 10:29:04,1697570
2025-09-11 10:29:04,1697756
2025-09-11 10:29:04,1697503
2025-09-11 10:29:04,1696764
2025-09-11 10:29:04,1695950
2025-09-11 10:29:04,1695110
2025-09-11 10:29:04,1693416
2025-09-11 10:29:04,1692077
2025-09-11 10:29:04,1691011
2025-09-11 10:29:04,1689960
2025-09-11 10:29:04,1688959
2025-09-11 10:29:04,1687305
2025-09-11 10:29:04,1685480
2025-09-11 10:29:04,1683040
2025-09-11 10:29:04,1679772
2025-09-11 10:29:04,1676571
2025-09-11 10:29:04,1674032
2025-09-11 10:29:04,1672203
2025-09-11 10:29:04,1670529
2025-09-11 10:29:04,1668757
2025-09-11 10:29:04,1666331
2025-09-11 10:29:04,1663812
2025-09-11 10:29:04,1661656
2025-09-11 10:29:04,1660220
2025-09-11 10:29:04,1659382
2025-09-11 10:29:04,1658469
2025-09-11 10:29:04,1656961
2025-09-11 10:29:04,1654869
2025-09-11 10:29:04,1652653
2025-09-11 10:29:04,1650666
2025-09-11 10:29:04,1648464
2025-09-11 10:29:04,1646014
2025-09-11 10:29:04,1644515
2025-09-11 10:29:04,1644246
2025-09-11 10:29:04,1643422
2025-09-11 10:29:04,1636461
2025-09-11 10:29:04,1634863
2025-09-11 10:29:05,1633228
2025-09-11 10:29:05,1631389
2025-09-11 10:29:05,1630634
2025-09-11 10:29:05,1630815
2025-09-11 10:29:05,1631295
2025-09-11 10:29:05,1632083
2025-09-11 10:29:05,1632843
2025-09-11 10:29:05,1633581
2025-09-11 10:29:05,1634273
2025-09-11 10:29:05,1634928
2025-09-11 10:29:05,1635620
2025-09-11 10:29:05,1636597
2025-09-11 10:29:05,1637553
2025-09-11 10:29:05,1638344
2025-09-11 10:29:05,1639110
2025-09-11 10:29:05,1639862
2025-09-11 10:29:05,1640659
2025-09-11 10:29:05,1641227
2025-09-11 10:29:05,1641824
2025-09-11 10:29:05,1642356
2025-09-11 10:29:05,1642733
2025-09-11 10:29:05,1643166
2025-09-11 10:29:05,1643333
2025-09-11 10:29:05,1643371
2025-09-11 10:29:05,1643613
2025-09-11 10:29:05,1643923
2025-09-11 10:29:05,1644752
2025-09-11 10:29:05,1645692
2025-09-11 10:29:05,1646618
2025-09-11 10:29:05,1647682
2025-09-11 10:29:05,1649047
2025-09-11 10:29:05,1650463
2025-09-11 10:29:05,1651904
2025-09-11 10:29:05,1652830
2025-09-11 10:29:05,1653295
2025-09-11 10:29:05,1653085
2025-09-11 10:29:05,1652122
2025-09-11 10:29:05,1650930
2025-09-11 10:29:05,1649469
2025-09-11 10:29:05,1648214
2025-09-11 10:29:05,1647427
2025-09-11 10:29:05,1647028
2025-09-11 10:29:05,1646953
2025-09-11 10:29:05,1646763
2025-09-11 10:29:05,1646459
2025-09-11 10:29:05,1645779
2025-09-11 10:29:05,1644518
2025-09-11 10:29:05,1643094
2025-09-11 10:29:05,1642209
2025-09-11 10:29:05,1641772
2025-09-11 10:29:05,1641493
2025-09-11 10:29:05,1641173
2025-09-11 10:29:05,1640998
2025-09-11 10:29:05,1641066
2025-09-11 10:29:05,1641130
2025-09-11 10:29:05,1641405
2025-09-11 10:29:05,1641639
2025-09-11 10:29:05,1642044
2025-09-11 10:29:05,1642909
2025-09-11 10:29:05,1644233
2025-09-11 10:29:05,1645785
2025-09-11 10:29:05,1647466
2025-09-11 10:29:05,1649398
2025-09-11 10:29:05,1651291
2025-09-11 10:29:05,1653331
2025-09-11 10:29:05,1655094
2025-09-11 10:29:05,1656734
2025-09-11 10:29:05,1658162
2025-09-11 10:29:05,1659455
2025-09-11 10:29:05,1660497
2025-09-11 10:29:05,1661357
2025-09-11 10:29:05,1662126
2025-09-11 10:29:05,1662707
2025-09-11 10:29:05,1663081
2025-09-11 10:29:05,1663466
2025-09-11 10:29:05,1663821
2025-09-11 10:29:05,1664019
2025-09-11 10:29:05,1664116
2025-09-11 10:29:05,1664155
2025-09-11 10:29:05,1663974
2025-09-11 10:29:05,1663998
2025-09-11 10:29:05,1664251
2025-09-11 10:29:05,1664700
2025-09-11 10:29:05,1665301
2025-09-11 10:29:05,1665583
2025-09-11 10:29:05,1665813
2025-09-11 10:29:05,1666154
2025-09-11 10:29:05,1666377
2025-09-11 10:29:05,1666425
2025-09-11 10:29:05,1666491
2025-09-11 10:29:05,1666366
2025-09-11 10:29:05,1666224
2025-09-11 10:29:05,1666062
2025-09-11 10:29:05,1666105
2025-09-11 10:29:05,1666111
2025-09-11 10:29:05,1666102
2025-09-11 10:29:05,1666315
2025-09-11 10:29:05,1666614
2025-09-11 10:29:05,1666985
2025-09-11 10:29:05,1667647
2025-09-11 10:29:06,1668417
2025-09-11 10:29:06,1669272
2025-09-11 10:29:06,1670314
2025-09-11 10:29:06,1671516
2025-09-11 10:29:06,1672748
2025-09-11 10:29:06,1673914
2025-09-11 10:29:06,1675183
2025-09-11 10:29:06,1676389
2025-09-11 10:29:06,1677505
2025-09-11 10:29:06,1679044
2025-09-11 10:29:06,1680047
2025-09-11 10:29:06,1680894
2025-09-11 10:29:06,1681244
2025-09-11 10:29:06,1681650
2025-09-11 10:29:06,1682070
2025-09-11 10:29:06,1682536
2025-09-11 10:29:06,1682869
2025-09-11 10:29:06,1683190
2025-09-11 10:29:06,1683437
2025-09-11 10:29:06,1683629
2025-09-11 10:29:06,1683682
2025-09-11 10:29:06,1683847
2025-09-11 10:29:06,1683821
2025-09-11 10:29:06,1683907
2025-09-11 10:29:06,1683865
2025-09-11 10:29:06,1683965
2025-09-11 10:29:06,1684096
2025-09-11 10:29:06,1684240
2025-09-11 10:29:06,1684432
2025-09-11 10:29:06,1684506
2025-09-11 10:29:06,1684482
2025-09-11 10:29:06,1684530
2025-09-11 10:29:06,1684535
2025-09-11 10:29:06,1684656
2025-09-11 10:29:06,1684574
2025-09-11 10:29:06,1684579
2025-09-11 10:29:06,1684425
2025-09-11 10:29:06,1684205
2025-09-11 10:29:06,1684021
2025-09-11 10:29:06,1683828
2025-09-11 10:29:06,1683731
2025-09-11 10:29:06,1683570
2025-09-11 10:29:06,1683328
2025-09-11 10:29:06,1683317
2025-09-11 10:29:06,1683068
2025-09-11 10:29:06,1682852
2025-09-11 10:29:06,1682714
2025-09-11 10:29:06,1682571
2025-09-11 10:29:06,1682391
2025-09-11 10:29:06,1682353
2025-09-11 10:29:06,1682187
2025-09-11 10:29:06,1682034
2025-09-11 10:29:06,1681906
2025-09-11 10:29:06,1681135
2025-09-11 10:29:06,1679986
2025-09-11 10:29:06,1678872
2025-09-11 10:29:06,1677475
2025-09-11 10:29:06,1675840
2025-09-11 10:29:06,1673503
2025-09-11 10:29:06,1671096
2025-09-11 10:29:06,1668297
2025-09-11 10:29:06,1665456
2025-09-11 10:29:06,1663159
2025-09-11 10:29:06,1660940
2025-09-11 10:29:06,1658767
2025-09-11 10:29:06,1656396
2025-09-11 10:29:06,1654249
2025-09-11 10:29:06,1652441
2025-09-11 10:29:06,1651100
2025-09-11 10:29:06,1650174
2025-09-11 10:29:06,1649493
2025-09-11 10:29:06,1649193
2025-09-11 10:29:06,1648977
2025-09-11 10:29:06,1649106
2025-09-11 10:29:06,1649582
2025-09-11 10:29:06,1650321
2025-09-11 10:29:06,1651073
2025-09-11 10:29:06,1652052
2025-09-11 10:29:06,1652963
2025-09-11 10:29:06,1654026
2025-09-11 10:29:06,1655221
2025-09-11 10:29:06,1656332
2025-09-11 10:29:06,1657446
2025-09-11 10:29:06,1658353
2025-09-11 10:29:06,1659374
2025-09-11 10:29:06,1660198
2025-09-11 10:29:06,1661080
2025-09-11 10:29:06,1661964
2025-09-11 10:29:06,1662785
2025-09-11 10:29:06,1663571
2025-09-11 10:29:06,1664500
2025-09-11 10:29:06,1665445
2025-09-11 10:29:06,1665445
2025-09-11 10:29:06,1666195
2025-09-11 10:29:06,1666643
2025-09-11 10:29:06,1667160
2025-09-11 10:29:06,1667398
2025-09-11 10:29:06,1667770
2025-09-11 10:29:06,1668408
2025-09-11 10:29:06,1668990
2025-09-11 10:29:06,1669530
2025-09-11 10:29:07,1670214
2025-09-11 10:29:07,1670802
2025-09-11 10:29:07,1671789
2025-09-11 10:29:07,1673010
2025-09-11 10:29:07,1674795
2025-09-11 10:29:07,1677106
2025-09-11 10:29:07,1680470
2025-09-11 10:29:07,1685529
2025-09-11 10:29:07,1692252
2025-09-11 10:29:07,1695897
2025-09-11 10:29:07,1696331
2025-09-11 10:29:07,1695874
2025-09-11 10:29:07,1696092
2025-09-11 10:29:07,1697221
2025-09-11 10:29:07,1698389
2025-09-11 10:29:07,1699200
2025-09-11 10:29:07,1699597
2025-09-11 10:29:07,1700066
2025-09-11 10:29:07,1700533
2025-09-11 10:29:07,1700747
2025-09-11 10:29:07,1700865
2025-09-11 10:29:07,1701043
2025-09-11 10:29:07,1701226
2025-09-11 10:29:07,1701172
2025-09-11 10:29:07,1701268
2025-09-11 10:29:07,1701434
2025-09-11 10:29:07,1701600
2025-09-11 10:29:07,1701733
2025-09-11 10:29:07,1701842
2025-09-11 10:29:07,1701872
2025-09-11 10:29:07,1701774
2025-09-11 10:29:07,1701613
2025-09-11 10:29:07,1701315
2025-09-11 10:29:07,1700848
2025-09-11 10:29:07,1699941
2025-09-11 10:29:07,1698997
2025-09-11 10:29:07,1697889
2025-09-11 10:29:07,1696998
2025-09-11 10:29:07,1697033
2025-09-11 10:29:07,1697268
2025-09-11 10:29:07,1697186
2025-09-11 10:29:07,1696990
2025-09-11 10:29:07,1696565
2025-09-11 10:29:07,1695864
2025-09-11 10:29:07,1695098
2025-09-11 10:29:07,1694123
2025-09-11 10:29:07,1692392
2025-09-11 10:29:07,1690661
2025-09-11 10:29:07,1688647
2025-09-11 10:29:07,1686837
2025-09-11 10:29:07,1685081
2025-09-11 10:29:07,1683671
2025-09-11 10:29:07,1682602
2025-09-11 10:29:07,1681745
2025-09-11 10:29:07,1681004
2025-09-11 10:29:07,1679876
2025-09-11 10:29:07,1678677
2025-09-11 10:29:07,1677775
2025-09-11 10:29:07,1676466
2025-09-11 10:29:07,1675334
2025-09-11 10:29:07,1673947
2025-09-11 10:29:07,1671783
2025-09-11 10:29:07,1670742
2025-09-11 10:29:07,1670377
2025-09-11 10:29:07,1670788
2025-09-11 10:29:07,1670572
2025-09-11 10:29:07,1671124
2025-09-11 10:29:07,1671064
2025-09-11 10:29:07,1669817
2025-09-11 10:29:07,1668094
2025-09-11 10:29:07,1666170
2025-09-11 10:29:07,1664083
2025-09-11 10:29:07,1662250
2025-09-11 10:29:07,1660717
2025-09-11 10:29:07,1659251
2025-09-11 10:29:07,1658147
2025-09-11 10:29:07,1657296
2025-09-11 10:29:07,1656533
2025-09-11 10:29:07,1655779
2025-09-11 10:29:07,1654882
2025-09-11 10:29:07,1653448
2025-09-11 10:29:07,1651597
2025-09-11 10:29:07,1649605
2025-09-11 10:29:07,1648652
2025-09-11 10:29:07,1644934
2025-09-11 10:29:07,1646827
2025-09-11 10:29:07,1654511
2025-09-11 10:29:07,1653193
2025-09-11 10:29:07,1652880
2025-09-11 10:29:07,1652603
2025-09-11 10:29:07,1651554
2025-09-11 10:29:07,1650993
2025-09-11 10:29:07,1650422
2025-09-11 10:29:07,1650228
2025-09-11 10:29:07,1650259
2025-09-11 10:29:07,1649603
2025-09-11 10:29:07,1648943
2025-09-11 10:29:07,1648667
2025-09-11 10:29:07,1648740
2025-09-11 10:29:07,1648987
2025-09-11 10:29:08,1649402
2025-09-11 10:29:08,1650365
2025-09-11 10:29:08,1651157
2025-09-11 10:29:08,1651687
2025-09-11 10:29:08,1652061
2025-09-11 10:29:08,1652219
2025-09-11 10:29:08,1652322
2025-09-11 10:29:08,1652451
2025-09-11 10:29:08,1652406
2025-09-11 10:29:08,1652613
2025-09-11 10:29:08,1653068
2025-09-11 10:29:08,1654060
2025-09-11 10:29:08,1654868
2025-09-11 10:29:08,1655738
2025-09-11 10:29:08,1655796
2025-09-11 10:29:08,1655138
2025-09-11 10:29:08,1654368
2025-09-11 10:29:08,1653694
2025-09-11 10:29:08,1653182
2025-09-11 10:29:08,1652648
2025-09-11 10:29:08,1652239
2025-09-11 10:29:08,1652053
2025-09-11 10:29:08,1651922
2025-09-11 10:29:08,1651505
2025-09-11 10:29:08,1650903
2025-09-11 10:29:08,1650270
2025-09-11 10:29:08,1649709
2025-09-11 10:29:08,1649365
2025-09-11 10:29:08,1648780
2025-09-11 10:29:08,1648490
2025-09-11 10:29:08,1648358
2025-09-11 10:29:08,1648080
2025-09-11 10:29:08,1648066
2025-09-11 10:29:08,1648151
2025-09-11 10:29:08,1648240
2025-09-11 10:29:08,1648312
2025-09-11 10:29:08,1648363
2025-09-11 10:29:08,1648373
2025-09-11 10:29:08,1648448
2025-09-11 10:29:08,1648539
2025-09-11 10:29:08,1648646
2025-09-11 10:29:08,1648825
2025-09-11 10:29:08,1649016
2025-09-11 10:29:08,1649198
2025-09-11 10:29:08,1649249
2025-09-11 10:29:08,1649443
2025-09-11 10:29:08,1649497
2025-09-11 10:29:08,1649727
2025-09-11 10:29:08,1650075
2025-09-11 10:29:08,1650386
2025-09-11 10:29:08,1650697
2025-09-11 10:29:08,1650976
2025-09-11 10:29:08,1651179
2025-09-11 10:29:08,1651234
2025-09-11 10:29:08,1651381
2025-09-11 10:29:08,1651713
2025-09-11 10:29:08,1652074
2025-09-11 10:29:08,1652324
2025-09-11 10:29:08,1652614
2025-09-11 10:29:08,1652965
2025-09-11 10:29:08,1653268
2025-09-11 10:29:08,1653571
2025-09-11 10:29:08,1653734
2025-09-11 10:29:08,1653794
2025-09-11 10:29:08,1653877
2025-09-11 10:29:08,1653888
2025-09-11 10:29:08,1653934
2025-09-11 10:29:08,1653964
2025-09-11 10:29:08,1654054
2025-09-11 10:29:08,1654044
2025-09-11 10:29:08,1654250
2025-09-11 10:29:08,1654384
2025-09-11 10:29:08,1654882
2025-09-11 10:29:08,1655584
2025-09-11 10:29:08,1656532
2025-09-11 10:29:08,1657737
2025-09-11 10:29:08,1659205
2025-09-11 10:29:08,1660844
2025-09-11 10:29:08,1662484
2025-09-11 10:29:08,1663791
2025-09-11 10:29:08,1664703
2025-09-11 10:29:08,1665597
2025-09-11 10:29:08,1666403
2025-09-11 10:29:08,1667142
2025-09-11 10:29:08,1667866
2025-09-11 10:29:08,1668571
2025-09-11 10:29:08,1669179
2025-09-11 10:29:08,1669843
2025-09-11 10:29:08,1670660
2025-09-11 10:29:08,1671451
2025-09-11 10:29:08,1672050
2025-09-11 10:29:08,1672745
2025-09-11 10:29:08,1673267
2025-09-11 10:29:08,1673876
2025-09-11 10:29:08,1674236
2025-09-11 10:29:08,1674570
2025-09-11 10:29:08,1674770
2025-09-11 10:29:08,1674941
2025-09-11 10:29:08,1675232
2025-09-11 10:29:08,1675473
2025-09-11 10:29:09,1675769
2025-09-11 10:29:09,1676310
2025-09-11 10:29:09,1677009
2025-09-11 10:29:09,1678014
2025-09-11 10:29:09,1679352
2025-09-11 10:29:09,1680705
2025-09-11 10:29:09,1682023
2025-09-11 10:29:09,1683292
2025-09-11 10:29:09,1684440
2025-09-11 10:29:09,1685523
2025-09-11 10:29:09,1686469
2025-09-11 10:29:09,1687339
2025-09-11 10:29:09,1688018
2025-09-11 10:29:09,1688550
2025-09-11 10:29:09,1689014
2025-09-11 10:29:09,1689369
2025-09-11 10:29:09,1689631
2025-09-11 10:29:09,1689977
2025-09-11 10:29:09,1690147
2025-09-11 10:29:09,1690271
2025-09-11 10:29:09,1690403
2025-09-11 10:29:09,1690550
2025-09-11 10:29:09,1690717
2025-09-11 10:29:09,1690842
2025-09-11 10:29:09,1690924
2025-09-11 10:29:09,1691062
2025-09-11 10:29:09,1691060
2025-09-11 10:29:09,1691118
2025-09-11 10:29:09,1691028
2025-09-11 10:29:09,1691102
2025-09-11 10:29:09,1691108
2025-09-11 10:29:09,1691112
2025-09-11 10:29:09,1691175
2025-09-11 10:29:09,1691109
2025-09-11 10:29:09,1691027
2025-09-11 10:29:09,1690976
2025-09-11 10:29:09,1690881
2025-09-11 10:29:09,1690869
2025-09-11 10:29:09,1690763
2025-09-11 10:29:09,1690831
2025-09-11 10:29:09,1690699
2025-09-11 10:29:09,1690593
2025-09-11 10:29:09,1690553
2025-09-11 10:29:09,1690436
2025-09-11 10:29:09,1690464
2025-09-11 10:29:09,1690351
2025-09-11 10:29:09,1690350
2025-09-11 10:29:09,1690205
2025-09-11 10:29:09,1690180
2025-09-11 10:29:09,1690165
2025-09-11 10:29:09,1690017
2025-09-11 10:29:09,1689988
2025-09-11 10:29:09,1689906
2025-09-11 10:29:09,1689793
2025-09-11 10:29:09,1689851
2025-09-11 10:29:09,1689863
2025-09-11 10:29:09,1689873
2025-09-11 10:29:09,1689813
2025-09-11 10:29:09,1689754
2025-09-11 10:29:09,1689709
2025-09-11 10:29:09,1689688
2025-09-11 10:29:09,1689650
2025-09-11 10:29:09,1689683
2025-09-11 10:29:09,1689665
2025-09-11 10:29:09,1689617
2025-09-11 10:29:09,1689658
2025-09-11 10:29:09,1689729
2025-09-11 10:29:09,1689641
2025-09-11 10:29:09,1689598
2025-09-11 10:29:09,1689511
2025-09-11 10:29:09,1689270
2025-09-11 10:29:09,1689011
2025-09-11 10:29:09,1688576
2025-09-11 10:29:09,1688073
2025-09-11 10:29:09,1687680
2025-09-11 10:29:09,1687145
2025-09-11 10:29:09,1686560
2025-09-11 10:29:09,1686097
2025-09-11 10:29:09,1685568
2025-09-11 10:29:09,1685249
2025-09-11 10:29:09,1684770
2025-09-11 10:29:09,1684335
2025-09-11 10:29:09,1683946
2025-09-11 10:29:09,1683695
2025-09-11 10:29:09,1683366
2025-09-11 10:29:09,1683200
2025-09-11 10:29:09,1682819
2025-09-11 10:29:09,1682629
2025-09-11 10:29:09,1682358
2025-09-11 10:29:09,1682138
2025-09-11 10:29:09,1681869
2025-09-11 10:29:09,1681717
2025-09-11 10:29:09,1681602
2025-09-11 10:29:09,1681356
2025-09-11 10:29:09,1681300
2025-09-11 10:29:09,1681183
2025-09-11 10:29:09,1681106
2025-09-11 10:29:09,1681004
2025-09-11 10:29:09,1681015
2025-09-11 10:29:09,1680871
2025-09-11 10:29:10,1680845
2025-09-11 10:29:10,1680818
2025-09-11 10:29:10,1680754
2025-09-11 10:29:10,1680648
2025-09-11 10:29:10,1680678
2025-09-11 10:29:10,1680475
2025-09-11 10:29:10,1680459
2025-09-11 10:29:10,1680388
2025-09-11 10:29:10,1680242
2025-09-11 10:29:10,1680164
2025-09-11 10:29:10,1680041
2025-09-11 10:29:10,1679994
2025-09-11 10:29:10,1679823
2025-09-11 10:29:10,1679771
2025-09-11 10:29:10,1679664
2025-09-11 10:29:10,1679595
2025-09-11 10:29:10,1679503
2025-09-11 10:29:10,1679559
2025-09-11 10:29:10,1679485
2025-09-11 10:29:10,1679382
2025-09-11 10:29:10,1679265
2025-09-11 10:29:10,1679328
2025-09-11 10:29:10,1679265
2025-09-11 10:29:10,1679219
2025-09-11 10:29:10,1679270
2025-09-11 10:29:10,1679207
2025-09-11 10:29:10,1679181
2025-09-11 10:29:10,1679114
2025-09-11 10:29:10,1679175
2025-09-11 10:29:10,1679137
2025-09-11 10:29:10,1679173
2025-09-11 10:29:10,1679131
2025-09-11 10:29:10,1679127
2025-09-11 10:29:10,1679132
2025-09-11 10:29:10,1679132
2025-09-11 10:29:10,1679196
2025-09-11 10:29:10,1679142
2025-09-11 10:29:10,1679182
2025-09-11 10:29:10,1679219
2025-09-11 10:29:10,1679218
2025-09-11 10:29:10,1679292
2025-09-11 10:29:10,1679417
2025-09-11 10:29:10,1679328
2025-09-11 10:29:10,1679395
2025-09-11 10:29:10,1679261
2025-09-11 10:29:10,1679191
2025-09-11 10:29:10,1678984
2025-09-11 10:29:10,1678751
2025-09-11 10:29:10,1678413
2025-09-11 10:29:10,1677939
2025-09-11 10:29:10,1677438
2025-09-11 10:29:10,1676999
2025-09-11 10:29:10,1676523
2025-09-11 10:29:10,1676036
2025-09-11 10:29:10,1675571
2025-09-11 10:29:10,1675104
2025-09-11 10:29:10,1674741
2025-09-11 10:29:10,1674342
2025-09-11 10:29:10,1673994
2025-09-11 10:29:10,1673716
2025-09-11 10:29:10,1673447
2025-09-11 10:29:10,1673241
2025-09-11 10:29:10,1673042
2025-09-11 10:29:10,1672774
2025-09-11 10:29:10,1672615
2025-09-11 10:29:10,1672423
2025-09-11 10:29:10,1672223
2025-09-11 10:29:10,1672088
2025-09-11 10:29:10,1671961
2025-09-11 10:29:10,1671879
2025-09-11 10:29:10,1671721
2025-09-11 10:29:10,1671742
2025-09-11 10:29:10,1671582
2025-09-11 10:29:10,1671622
2025-09-11 10:29:10,1671618
2025-09-11 10:29:10,1671636
2025-09-11 10:29:10,1671552
2025-09-11 10:29:10,1671451
2025-09-11 10:29:10,1671483
2025-09-11 10:29:10,1671490
2025-09-11 10:29:10,1671409
2025-09-11 10:29:10,1671385
2025-09-11 10:29:10,1671343
2025-09-11 10:29:10,1671150
2025-09-11 10:29:10,1671105
2025-09-11 10:29:10,1671074
2025-09-11 10:29:10,1670936
2025-09-11 10:29:10,1670882
2025-09-11 10:29:10,1670824
2025-09-11 10:29:10,1670811
2025-09-11 10:29:10,1670708
2025-09-11 10:29:10,1670729
2025-09-11 10:29:10,1670693
2025-09-11 10:29:10,1670587
2025-09-11 10:29:10,1670657
2025-09-11 10:29:10,1670519
2025-09-11 10:29:10,1670464
2025-09-11 10:29:10,1670442
2025-09-11 10:29:10,1670439
2025-09-11 10:29:10,1670488
2025-09-11 10:29:11,1670482
2025-09-11 10:29:11,1670548
2025-09-11 10:29:11,1670551
2025-09-11 10:29:11,1670560
2025-09-11 10:29:11,1670605
2025-09-11 10:29:11,1670604
2025-09-11 10:29:11,1670706
2025-09-11 10:29:11,1670651
2025-09-11 10:29:11,1670683
2025-09-11 10:29:11,1670755
2025-09-11 10:29:11,1670840
2025-09-11 10:29:11,1670845
2025-09-11 10:29:11,1670947
2025-09-11 10:29:11,1670901
2025-09-11 10:29:11,1670983
2025-09-11 10:29:11,1671045
2025-09-11 10:29:11,1671019
2025-09-11 10:29:11,1670976
2025-09-11 10:29:11,1670713
2025-09-11 10:29:11,1670432
2025-09-11 10:29:11,1670148
2025-09-11 10:29:11,1669703
2025-09-11 10:29:11,1669309
2025-09-11 10:29:11,1668790
2025-09-11 10:29:11,1668312
2025-09-11 10:29:11,1667834
2025-09-11 10:29:11,1667288
2025-09-11 10:29:11,1666888
2025-09-11 10:29:11,1666635
2025-09-11 10:29:11,1666263
2025-09-11 10:29:11,1666003
2025-09-11 10:29:11,1665613
2025-09-11 10:29:11,1665422
2025-09-11 10:29:11,1665229
2025-09-11 10:29:11,1665074
2025-09-11 10:29:11,1664836
2025-09-11 10:29:11,1664686
2025-09-11 10:29:11,1664508
2025-09-11 10:29:11,1664386
2025-09-11 10:29:11,1664315
2025-09-11 10:29:11,1664188
2025-09-11 10:29:11,1664122
2025-09-11 10:29:11,1663955
2025-09-11 10:29:11,1663993
2025-09-11 10:29:11,1663980
2025-09-11 10:29:11,1663963
2025-09-11 10:29:11,1663962
2025-09-11 10:29:11,1663949
2025-09-11 10:29:11,1664040
2025-09-11 10:29:11,1663954
2025-09-11 10:29:11,1664094
2025-09-11 10:29:11,1663990
2025-09-11 10:29:11,1663912
2025-09-11 10:29:11,1663883
2025-09-11 10:29:11,1663877
2025-09-11 10:29:11,1663780
2025-09-11 10:29:11,1663688
2025-09-11 10:29:11,1663669
2025-09-11 10:29:11,1663683
2025-09-11 10:29:11,1663597
2025-09-11 10:29:11,1663653
2025-09-11 10:29:11,1663632
2025-09-11 10:29:11,1663623
2025-09-11 10:29:11,1663596
2025-09-11 10:29:11,1663624
2025-09-11 10:29:11,1663530
2025-09-11 10:29:11,1663577
2025-09-11 10:29:11,1663594
2025-09-11 10:29:11,1663614
2025-09-11 10:29:11,1663664
2025-09-11 10:29:11,1663732
2025-09-11 10:29:11,1663642
2025-09-11 10:29:11,1663741
2025-09-11 10:29:11,1663848
2025-09-11 10:29:11,1663870
2025-09-11 10:29:11,1663906
2025-09-11 10:29:11,1663940
2025-09-11 10:29:11,1664059
2025-09-11 10:29:11,1664097
2025-09-11 10:29:11,1664179
2025-09-11 10:29:11,1664166
2025-09-11 10:29:11,1664278
2025-09-11 10:29:11,1664377
2025-09-11 10:29:11,1664487
2025-09-11 10:29:11,1664574
2025-09-11 10:29:11,1664599
2025-09-11 10:29:11,1664624
2025-09-11 10:29:11,1664791
2025-09-11 10:29:11,1664779
2025-09-11 10:29:11,1664958
2025-09-11 10:29:11,1665037
2025-09-11 10:29:11,1665024
2025-09-11 10:29:11,1664984
2025-09-11 10:29:11,1664852
2025-09-11 10:29:11,1664596
2025-09-11 10:29:11,1664172
2025-09-11 10:29:11,1663763
2025-09-11 10:29:11,1663231
2025-09-11 10:29:11,1662772
2025-09-11 10:29:11,1662384
2025-09-11 10:29:12,1661876
2025-09-11 10:29:12,1661488
2025-09-11 10:29:12,1661146
2025-09-11 10:29:12,1660698
2025-09-11 10:29:12,1660439
2025-09-11 10:29:12,1660148
2025-09-11 10:29:12,1659922
2025-09-11 10:29:12,1659647
2025-09-11 10:29:12,1659479
2025-09-11 10:29:12,1659198
2025-09-11 10:29:12,1659022
2025-09-11 10:29:12,1658883
2025-09-11 10:29:12,1658686
2025-09-11 10:29:12,1658600
2025-09-11 10:29:12,1658412
2025-09-11 10:29:12,1658273
2025-09-11 10:29:12,1658180
2025-09-11 10:29:12,1658144
2025-09-11 10:29:12,1658052
2025-09-11 10:29:12,1657860
2025-09-11 10:29:12,1657849
2025-09-11 10:29:12,1657921
2025-09-11 10:29:12,1657941
2025-09-11 10:29:12,1657909
2025-09-11 10:29:12,1657921
2025-09-11 10:29:12,1657918
2025-09-11 10:29:12,1657908
2025-09-11 10:29:12,1657884
2025-09-11 10:29:12,1657771
2025-09-11 10:29:12,1657789
2025-09-11 10:29:12,1657809
2025-09-11 10:29:12,1657847
2025-09-11 10:29:12,1657786
2025-09-11 10:29:12,1657638
2025-09-11 10:29:12,1657667
2025-09-11 10:29:12,1657629
2025-09-11 10:29:12,1657552
2025-09-11 10:29:12,1657533
2025-09-11 10:29:12,1657542
2025-09-11 10:29:12,1657502
2025-09-11 10:29:12,1657558
2025-09-11 10:29:12,1657569
2025-09-11 10:29:12,1657563
2025-09-11 10:29:12,1657573
2025-09-11 10:29:12,1657584
2025-09-11 10:29:12,1657635
2025-09-11 10:29:12,1657654
2025-09-11 10:29:12,1657688
2025-09-11 10:29:12,1657702
2025-09-11 10:29:12,1657833
2025-09-11 10:29:12,1657884
2025-09-11 10:29:12,1657911
2025-09-11 10:29:12,1658022
2025-09-11 10:29:12,1658099
2025-09-11 10:29:12,1658154
2025-09-11 10:29:12,1658169
2025-09-11 10:29:12,1658293
2025-09-11 10:29:12,1658328
2025-09-11 10:29:12,1658495
2025-09-11 10:29:12,1658500
2025-09-11 10:29:12,1658602
2025-09-11 10:29:12,1658746
2025-09-11 10:29:12,1658797
2025-09-11 10:29:12,1658882
2025-09-11 10:29:12,1658986
2025-09-11 10:29:12,1659068
2025-09-11 10:29:12,1659226
2025-09-11 10:29:12,1659221
2025-09-11 10:29:12,1659454
2025-09-11 10:29:12,1659466
2025-09-11 10:29:12,1659551
2025-09-11 10:29:12,1659694
2025-09-11 10:29:12,1659719
2025-09-11 10:29:12,1659650
2025-09-11 10:29:12,1659522
2025-09-11 10:29:12,1659154
2025-09-11 10:29:12,1658885
2025-09-11 10:29:12,1658371
2025-09-11 10:29:12,1657926
2025-09-11 10:29:12,1657442
2025-09-11 10:29:12,1656960
2025-09-11 10:29:12,1656582
2025-09-11 10:29:12,1656033
2025-09-11 10:29:12,1655702
2025-09-11 10:29:12,1655360
2025-09-11 10:29:12,1655020
2025-09-11 10:29:12,1654780
2025-09-11 10:29:12,1654546
2025-09-11 10:29:12,1654337
2025-09-11 10:29:12,1654206
2025-09-11 10:29:12,1653921
2025-09-11 10:29:12,1653765
2025-09-11 10:29:12,1653586
2025-09-11 10:29:12,1653446
2025-09-11 10:29:12,1653351
2025-09-11 10:29:12,1653138
2025-09-11 10:29:12,1653058
2025-09-11 10:29:12,1652993
2025-09-11 10:29:12,1652844
2025-09-11 10:29:12,1652823
2025-09-11 10:29:13,1652789
2025-09-11 10:29:13,1652687
2025-09-11 10:29:13,1652836
2025-09-11 10:29:13,1652793
2025-09-11 10:29:13,1652807
2025-09-11 10:29:13,1652784
2025-09-11 10:29:13,1652810
2025-09-11 10:29:13,1652838
2025-09-11 10:29:13,1652843
2025-09-11 10:29:13,1652862
2025-09-11 10:29:13,1652841
2025-09-11 10:29:13,1652724
2025-09-11 10:29:13,1652725
2025-09-11 10:29:13,1652723
2025-09-11 10:29:13,1652716
2025-09-11 10:29:13,1652630
2025-09-11 10:29:13,1652620
2025-09-11 10:29:13,1652691
2025-09-11 10:29:13,1652633
2025-09-11 10:29:13,1652728
2025-09-11 10:29:13,1652692
2025-09-11 10:29:13,1652634
2025-09-11 10:29:13,1652680
2025-09-11 10:29:13,1652647
2025-09-11 10:29:13,1652715
2025-09-11 10:29:13,1652754
2025-09-11 10:29:13,1652768
2025-09-11 10:29:13,1652851
2025-09-11 10:29:13,1652907
2025-09-11 10:29:13,1652945
2025-09-11 10:29:13,1652991
2025-09-11 10:29:13,1653093
2025-09-11 10:29:13,1653136
2025-09-11 10:29:13,1653249
2025-09-11 10:29:13,1653373
2025-09-11 10:29:13,1653431
2025-09-11 10:29:13,1653512
2025-09-11 10:29:13,1653526
2025-09-11 10:29:13,1653595
2025-09-11 10:29:13,1653847
2025-09-11 10:29:13,1653927
2025-09-11 10:29:13,1653995
2025-09-11 10:29:13,1654076
2025-09-11 10:29:13,1654202
2025-09-11 10:29:13,1654214
2025-09-11 10:29:13,1654416
2025-09-11 10:29:13,1654476
2025-09-11 10:29:13,1654519
2025-09-11 10:29:13,1654650
2025-09-11 10:29:13,1654810
2025-09-11 10:29:13,1654932
2025-09-11 10:29:13,1655028
2025-09-11 10:29:13,1655099
2025-09-11 10:29:13,1655210
2025-09-11 10:29:13,1655099
2025-09-11 10:29:13,1654963
2025-09-11 10:29:13,1654782
2025-09-11 10:29:13,1654400
2025-09-11 10:29:13,1654039
2025-09-11 10:29:13,1653536
2025-09-11 10:29:13,1653050
2025-09-11 10:29:13,1652648
2025-09-11 10:29:13,1652176
2025-09-11 10:29:13,1651853
2025-09-11 10:29:13,1651446
2025-09-11 10:29:13,1651099
2025-09-11 10:29:13,1650791
2025-09-11 10:29:13,1650666
2025-09-11 10:29:13,1650439
2025-09-11 10:29:13,1650121
2025-09-11 10:29:13,1650010
2025-09-11 10:29:13,1649882
2025-09-11 10:29:13,1649654
2025-09-11 10:29:13,1649590
2025-09-11 10:29:13,1649494
2025-09-11 10:29:13,1649294
2025-09-11 10:29:13,1649186
2025-09-11 10:29:13,1649087
2025-09-11 10:29:13,1649016
2025-09-11 10:29:13,1648977
2025-09-11 10:29:13,1648821
2025-09-11 10:29:13,1648835
2025-09-11 10:29:13,1648891
2025-09-11 10:29:13,1648839
2025-09-11 10:29:13,1648884
2025-09-11 10:29:13,1648921
2025-09-11 10:29:13,1649032
2025-09-11 10:29:13,1648961
2025-09-11 10:29:13,1648985
2025-09-11 10:29:13,1648999
2025-09-11 10:29:13,1649026
2025-09-11 10:29:13,1649004
2025-09-11 10:29:13,1648969
2025-09-11 10:29:13,1648900
2025-09-11 10:29:13,1649000
2025-09-11 10:29:13,1648854
2025-09-11 10:29:13,1648849
2025-09-11 10:29:13,1648818
2025-09-11 10:29:13,1648886
2025-09-11 10:29:13,1648799
2025-09-11 10:29:14,1648886
2025-09-11 10:29:14,1648949
2025-09-11 10:29:14,1648893
2025-09-11 10:29:14,1648912
2025-09-11 10:29:14,1649025
2025-09-11 10:29:14,1648972
2025-09-11 10:29:14,1649104
2025-09-11 10:29:14,1649168
2025-09-11 10:29:14,1649251
2025-09-11 10:29:14,1649273
2025-09-11 10:29:14,1649449
2025-09-11 10:29:14,1649534
2025-09-11 10:29:14,1649588
2025-09-11 10:29:14,1649643
2025-09-11 10:29:14,1649739
2025-09-11 10:29:14,1649826
2025-09-11 10:29:14,1649916
2025-09-11 10:29:14,1650056
2025-09-11 10:29:14,1650211
2025-09-11 10:29:14,1650376
2025-09-11 10:29:14,1650469
2025-09-11 10:29:14,1650569
2025-09-11 10:29:14,1650619
2025-09-11 10:29:14,1650769
2025-09-11 10:29:14,1650946
2025-09-11 10:29:14,1650990
2025-09-11 10:29:14,1651180
2025-09-11 10:29:14,1651218
2025-09-11 10:29:14,1651306
2025-09-11 10:29:14,1651471
2025-09-11 10:29:14,1651587
2025-09-11 10:29:14,1651807
2025-09-11 10:29:14,1651918
2025-09-11 10:29:14,1651971
2025-09-11 10:29:14,1651973
2025-09-11 10:29:14,1651841
2025-09-11 10:29:14,1651650
2025-09-11 10:29:14,1651268
2025-09-11 10:29:14,1650940
2025-09-11 10:29:14,1650454
2025-09-11 10:29:14,1650019
2025-09-11 10:29:14,1649684
2025-09-11 10:29:14,1649196
2025-09-11 10:29:14,1648824
2025-09-11 10:29:14,1648579
2025-09-11 10:29:14,1648260
2025-09-11 10:29:14,1648024
2025-09-11 10:29:14,1647859
2025-09-11 10:29:14,1647753
2025-09-11 10:29:14,1647561
2025-09-11 10:29:14,1647443
2025-09-11 10:29:14,1647330
2025-09-11 10:29:14,1647277
2025-09-11 10:29:14,1647187
2025-09-11 10:29:14,1647107
2025-09-11 10:29:14,1647095
2025-09-11 10:29:14,1647069
2025-09-11 10:29:14,1646983
2025-09-11 10:29:14,1646984
2025-09-11 10:29:14,1646955
2025-09-11 10:29:14,1646955
2025-09-11 10:29:14,1647072
2025-09-11 10:29:14,1647117
2025-09-11 10:29:14,1647183
2025-09-11 10:29:14,1647266
2025-09-11 10:29:14,1647308
2025-09-11 10:29:14,1647373
2025-09-11 10:29:14,1647329
2025-09-11 10:29:14,1647297
2025-09-11 10:29:14,1647443
2025-09-11 10:29:14,1647447
2025-09-11 10:29:14,1647492
2025-09-11 10:29:14,1647454
2025-09-11 10:29:14,1647456
2025-09-11 10:29:14,1647452
2025-09-11 10:29:14,1647474
2025-09-11 10:29:14,1647358
2025-09-11 10:29:14,1647392
2025-09-11 10:29:14,1647439
2025-09-11 10:29:14,1647400
2025-09-11 10:29:14,1647500
2025-09-11 10:29:14,1647460
2025-09-11 10:29:14,1647586
2025-09-11 10:29:14,1647551
2025-09-11 10:29:14,1647743
2025-09-11 10:29:14,1647666
2025-09-11 10:29:14,1647772
2025-09-11 10:29:14,1647845
2025-09-11 10:29:14,1647897
2025-09-11 10:29:14,1648042
2025-09-11 10:29:14,1648169
2025-09-11 10:29:14,1648240
2025-09-11 10:29:14,1648299
2025-09-11 10:29:14,1648391
2025-09-11 10:29:14,1648532
2025-09-11 10:29:14,1648607
2025-09-11 10:29:14,1648704
2025-09-11 10:29:14,1648909
2025-09-11 10:29:14,1649000
2025-09-11 10:29:14,1649086
2025-09-11 10:29:15,1649169
2025-09-11 10:29:15,1649222
2025-09-11 10:29:15,1649374
2025-09-11 10:29:15,1649424
2025-09-11 10:29:15,1649683
2025-09-11 10:29:15,1649806
2025-09-11 10:29:15,1649892
2025-09-11 10:29:15,1649868
2025-09-11 10:29:15,1649907
2025-09-11 10:29:15,1649762
2025-09-11 10:29:15,1649494
2025-09-11 10:29:15,1649131
2025-09-11 10:29:15,1648772
2025-09-11 10:29:15,1648362
2025-09-11 10:29:15,1647889
2025-09-11 10:29:15,1647578
2025-09-11 10:29:15,1647224
2025-09-11 10:29:15,1646852
2025-09-11 10:29:15,1646575
2025-09-11 10:29:15,1646311
2025-09-11 10:29:15,1646165
2025-09-11 10:29:15,1645953
2025-09-11 10:29:15,1645801
2025-09-11 10:29:15,1645634
2025-09-11 10:29:15,1645514
2025-09-11 10:29:15,1645424
2025-09-11 10:29:15,1645331
2025-09-11 10:29:15,1645339
2025-09-11 10:29:15,1645238
2025-09-11 10:29:15,1645200
2025-09-11 10:29:15,1645208
2025-09-11 10:29:15,1645015
2025-09-11 10:29:15,1645129
2025-09-11 10:29:15,1645128
2025-09-11 10:29:15,1645213
2025-09-11 10:29:15,1645176
2025-09-11 10:29:15,1645260
2025-09-11 10:29:15,1645325
2025-09-11 10:29:15,1645429
2025-09-11 10:29:15,1645384
2025-09-11 10:29:15,1645460
2025-09-11 10:29:15,1645597
2025-09-11 10:29:15,1645620
2025-09-11 10:29:15,1645668
2025-09-11 10:29:15,1645664
2025-09-11 10:29:15,1645697
2025-09-11 10:29:15,1645688
2025-09-11 10:29:15,1645651
2025-09-11 10:29:15,1645643
2025-09-11 10:29:15,1645687
2025-09-11 10:29:15,1645644
2025-09-11 10:29:15,1645676
2025-09-11 10:29:15,1645755
2025-09-11 10:29:15,1645768
2025-09-11 10:29:15,1645803
2025-09-11 10:29:15,1645786
2025-09-11 10:29:15,1645958
2025-09-11 10:29:15,1645920
2025-09-11 10:29:15,1645922
2025-09-11 10:29:15,1646102
2025-09-11 10:29:15,1646161
2025-09-11 10:29:15,1646233
2025-09-11 10:29:15,1646280
2025-09-11 10:29:15,1646411
2025-09-11 10:29:15,1646571
2025-09-11 10:29:15,1646610
2025-09-11 10:29:15,1646705
2025-09-11 10:29:15,1646821
2025-09-11 10:29:15,1646857
2025-09-11 10:29:15,1647070
2025-09-11 10:29:15,1647125
2025-09-11 10:29:15,1647295
2025-09-11 10:29:15,1647417
2025-09-11 10:29:15,1647568
2025-09-11 10:29:15,1647585
2025-09-11 10:29:15,1647694
2025-09-11 10:29:15,1647869
2025-09-11 10:29:15,1648011
2025-09-11 10:29:15,1648119
2025-09-11 10:29:15,1648224
2025-09-11 10:29:15,1648380
2025-09-11 10:29:15,1648323
2025-09-11 10:29:15,1648226
2025-09-11 10:29:15,1648018
2025-09-11 10:29:15,1647630
2025-09-11 10:29:15,1647236
2025-09-11 10:29:15,1646811
2025-09-11 10:29:15,1646420
2025-09-11 10:29:15,1646028
2025-09-11 10:29:15,1645527
2025-09-11 10:29:15,1645146
2025-09-11 10:29:15,1644848
2025-09-11 10:29:15,1644610
2025-09-11 10:29:15,1644360
2025-09-11 10:29:15,1644199
2025-09-11 10:29:15,1643962
2025-09-11 10:29:15,1643787
2025-09-11 10:29:15,1643623
2025-09-11 10:29:15,1643551
2025-09-11 10:29:15,1643348
2025-09-11 10:29:15,1643344
2025-09-11 10:29:16,1643240
2025-09-11 10:29:16,1643186
2025-09-11 10:29:16,1643106
2025-09-11 10:29:16,1643000
2025-09-11 10:29:16,1642868
2025-09-11 10:29:16,1642892
2025-09-11 10:29:16,1642872
2025-09-11 10:29:16,1642832
2025-09-11 10:29:16,1642843
2025-09-11 10:29:16,1642830
2025-09-11 10:29:16,1642976
2025-09-11 10:29:16,1643021
2025-09-11 10:29:16,1643128
2025-09-11 10:29:16,1643131
2025-09-11 10:29:16,1643158
2025-09-11 10:29:16,1643162
2025-09-11 10:29:16,1643238
2025-09-11 10:29:16,1643290
2025-09-11 10:29:16,1643291
2025-09-11 10:29:16,1643282
2025-09-11 10:29:16,1643252
2025-09-11 10:29:16,1643291
2025-09-11 10:29:16,1643303
2025-09-11 10:29:16,1643379
2025-09-11 10:29:16,1643352
2025-09-11 10:29:16,1643351
2025-09-11 10:29:16,1643414
2025-09-11 10:29:16,1643344
2025-09-11 10:29:16,1643441
2025-09-11 10:29:16,1643480
2025-09-11 10:29:16,1643627
2025-09-11 10:29:16,1643624
2025-09-11 10:29:16,1643711
2025-09-11 10:29:16,1643877
2025-09-11 10:29:16,1643827
2025-09-11 10:29:16,1643941
2025-09-11 10:29:16,1644078
2025-09-11 10:29:16,1644191
2025-09-11 10:29:16,1644276
2025-09-11 10:29:16,1644359
2025-09-11 10:29:16,1644500
2025-09-11 10:29:16,1644608
2025-09-11 10:29:16,1644694
2025-09-11 10:29:16,1644793
2025-09-11 10:29:16,1644938
2025-09-11 10:29:16,1644938
2025-09-11 10:29:16,1645118
2025-09-11 10:29:16,1645246
2025-09-11 10:29:16,1645414
2025-09-11 10:29:16,1645554
2025-09-11 10:29:16,1645624
2025-09-11 10:29:16,1645733
2025-09-11 10:29:16,1645862
2025-09-11 10:29:16,1645931
2025-09-11 10:29:16,1646162
2025-09-11 10:29:16,1646278
2025-09-11 10:29:16,1646440
2025-09-11 10:29:16,1646549
2025-09-11 10:29:16,1646563
2025-09-11 10:29:16,1646463
2025-09-11 10:29:16,1646251
2025-09-11 10:29:16,1646008
2025-09-11 10:29:16,1645570
2025-09-11 10:29:16,1645143
2025-09-11 10:29:16,1644705
2025-09-11 10:29:16,1644197
2025-09-11 10:29:16,1643808
2025-09-11 10:29:16,1643449
2025-09-11 10:29:16,1643174
2025-09-11 10:29:16,1642844
2025-09-11 10:29:16,1642561
2025-09-11 10:29:16,1642343
2025-09-11 10:29:16,1642134
2025-09-11 10:29:16,1642017
2025-09-11 10:29:16,1641861
2025-09-11 10:29:16,1641659
2025-09-11 10:29:16,1641509
2025-09-11 10:29:16,1641467
2025-09-11 10:29:16,1641227
2025-09-11 10:29:16,1641171
2025-09-11 10:29:16,1641209
2025-09-11 10:29:16,1641035
2025-09-11 10:29:16,1641000
2025-09-11 10:29:16,1641039
2025-09-11 10:29:16,1640843
2025-09-11 10:29:16,1640736
2025-09-11 10:29:16,1640862
2025-09-11 10:29:16,1640965
2025-09-11 10:29:16,1640909
2025-09-11 10:29:16,1641000
2025-09-11 10:29:16,1641049
2025-09-11 10:29:16,1641129
2025-09-11 10:29:16,1641205
2025-09-11 10:29:16,1641263
2025-09-11 10:29:16,1641268
2025-09-11 10:29:16,1641297
2025-09-11 10:29:16,1641262
2025-09-11 10:29:16,1641329
2025-09-11 10:29:16,1641341
2025-09-11 10:29:16,1641288
2025-09-11 10:29:17,1641355
2025-09-11 10:29:17,1641330
2025-09-11 10:29:17,1641372
2025-09-11 10:29:17,1641482
2025-09-11 10:29:17,1641419
2025-09-11 10:29:17,1641463
2025-09-11 10:29:17,1641508
2025-09-11 10:29:17,1641601
2025-09-11 10:29:17,1641597
2025-09-11 10:29:17,1641692
2025-09-11 10:29:17,1641731
2025-09-11 10:29:17,1641775
2025-09-11 10:29:17,1641953
2025-09-11 10:29:17,1642022
2025-09-11 10:29:17,1642025
2025-09-11 10:29:17,1642235
2025-09-11 10:29:17,1642324
2025-09-11 10:29:17,1642418
2025-09-11 10:29:17,1642538
2025-09-11 10:29:17,1642621
2025-09-11 10:29:17,1642732
2025-09-11 10:29:17,1642907
2025-09-11 10:29:17,1642940
2025-09-11 10:29:17,1643124
2025-09-11 10:29:17,1643213
2025-09-11 10:29:17,1643332
2025-09-11 10:29:17,1643448
2025-09-11 10:29:17,1643555
2025-09-11 10:29:17,1643705
2025-09-11 10:29:17,1643860
2025-09-11 10:29:17,1643995
2025-09-11 10:29:17,1644137
2025-09-11 10:29:17,1644182
2025-09-11 10:29:17,1644369
2025-09-11 10:29:17,1644485
2025-09-11 10:29:17,1644661
2025-09-11 10:29:17,1644797
2025-09-11 10:29:17,1644853
2025-09-11 10:29:17,1645019
2025-09-11 10:29:17,1645160
2025-09-11 10:29:17,1645330
2025-09-11 10:29:17,1645528
2025-09-11 10:29:17,1645489
2025-09-11 10:29:17,1645531
2025-09-11 10:29:17,1645314
2025-09-11 10:29:17,1645100
2025-09-11 10:29:17,1644818
2025-09-11 10:29:17,1644381
2025-09-11 10:29:17,1643918
2025-09-11 10:29:17,1643445
2025-09-11 10:29:17,1643014
2025-09-11 10:29:17,1642512
2025-09-11 10:29:17,1642240
2025-09-11 10:29:17,1641868
2025-09-11 10:29:17,1641564
2025-09-11 10:29:17,1641449
2025-09-11 10:29:17,1641188
2025-09-11 10:29:17,1640982
2025-09-11 10:29:17,1640845
2025-09-11 10:29:17,1640630
2025-09-11 10:29:17,1640603
2025-09-11 10:29:17,1640510
2025-09-11 10:29:17,1640331
2025-09-11 10:29:17,1640248
2025-09-11 10:29:17,1640193
2025-09-11 10:29:17,1640170
2025-09-11 10:29:17,1640097
2025-09-11 10:29:17,1639972
2025-09-11 10:29:17,1639963
2025-09-11 10:29:17,1639937
2025-09-11 10:29:17,1639884
2025-09-11 10:29:17,1639980
2025-09-11 10:29:17,1639966
2025-09-11 10:29:17,1640053
2025-09-11 10:29:17,1640050
2025-09-11 10:29:17,1640136
2025-09-11 10:29:17,1640172
2025-09-11 10:29:17,1640204
2025-09-11 10:29:17,1640239
2025-09-11 10:29:17,1640382
2025-09-11 10:29:17,1640388
2025-09-11 10:29:17,1640348
2025-09-11 10:29:17,1640367
2025-09-11 10:29:17,1640413
2025-09-11 10:29:17,1640467
2025-09-11 10:29:17,1640435
2025-09-11 10:29:17,1640439
2025-09-11 10:29:17,1640419
2025-09-11 10:29:17,1640534
2025-09-11 10:29:17,1640559
2025-09-11 10:29:17,1640503
2025-09-11 10:29:17,1640579
2025-09-11 10:29:17,1640588
2025-09-11 10:29:17,1640687
2025-09-11 10:29:17,1640790
2025-09-11 10:29:17,1640687
2025-09-11 10:29:17,1640901
2025-09-11 10:29:17,1640924
2025-09-11 10:29:17,1641052
2025-09-11 10:29:17,1641237
2025-09-11 10:29:18,1641289
2025-09-11 10:29:18,1641396
2025-09-11 10:29:18,1641497
2025-09-11 10:29:18,1641652
2025-09-11 10:29:18,1641674
2025-09-11 10:29:18,1641762
2025-09-11 10:29:18,1641948
2025-09-11 10:29:18,1642045
2025-09-11 10:29:18,1642144
2025-09-11 10:29:18,1642328
2025-09-11 10:29:18,1642408
2025-09-11 10:29:18,1642573
2025-09-11 10:29:18,1642705
2025-09-11 10:29:18,1642818
2025-09-11 10:29:18,1642893
2025-09-11 10:29:18,1643086
2025-09-11 10:29:18,1643215
2025-09-11 10:29:18,1643313
2025-09-11 10:29:18,1643465
2025-09-11 10:29:18,1643545
2025-09-11 10:29:18,1643651
2025-09-11 10:29:18,1643841
2025-09-11 10:29:18,1643965
2025-09-11 10:29:18,1644149
2025-09-11 10:29:18,1644265
2025-09-11 10:29:18,1644399
2025-09-11 10:29:18,1644462
2025-09-11 10:29:18,1644642
2025-09-11 10:29:18,1644707
2025-09-11 10:29:18,1644740
2025-09-11 10:29:18,1644512
2025-09-11 10:29:18,1644192
2025-09-11 10:29:18,1643853
2025-09-11 10:29:18,1643446
2025-09-11 10:29:18,1642953
2025-09-11 10:29:18,1642510
2025-09-11 10:29:18,1642149
2025-09-11 10:29:18,1641699
2025-09-11 10:29:18,1641429
2025-09-11 10:29:18,1641133
2025-09-11 10:29:18,1640815
2025-09-11 10:29:18,1640644
2025-09-11 10:29:18,1640440
2025-09-11 10:29:18,1640252
2025-09-11 10:29:18,1640088
2025-09-11 10:29:18,1639912
2025-09-11 10:29:18,1639845
2025-09-11 10:29:18,1639772
2025-09-11 10:29:18,1639736
2025-09-11 10:29:18,1639703
2025-09-11 10:29:18,1639532
2025-09-11 10:29:18,1639532
2025-09-11 10:29:18,1639454
2025-09-11 10:29:18,1639394
2025-09-11 10:29:18,1639439
2025-09-11 10:29:18,1639316
2025-09-11 10:29:18,1639347
2025-09-11 10:29:18,1639445
2025-09-11 10:29:18,1639427
2025-09-11 10:29:18,1639564
2025-09-11 10:29:18,1639583
2025-09-11 10:29:18,1639638
2025-09-11 10:29:18,1639767
2025-09-11 10:29:18,1639769
2025-09-11 10:29:18,1639904
2025-09-11 10:29:18,1639877
2025-09-11 10:29:18,1639851
2025-09-11 10:29:18,1639841
2025-09-11 10:29:18,1639919
2025-09-11 10:29:18,1639898
2025-09-11 10:29:18,1639848
2025-09-11 10:29:18,1639931
2025-09-11 10:29:18,1639857
2025-09-11 10:29:18,1639899
2025-09-11 10:29:18,1639936
2025-09-11 10:29:18,1639983
2025-09-11 10:29:18,1640019
2025-09-11 10:29:18,1640086
2025-09-11 10:29:18,1640066
2025-09-11 10:29:18,1640139
2025-09-11 10:29:18,1640229
2025-09-11 10:29:18,1640266
2025-09-11 10:29:18,1640396
2025-09-11 10:29:18,1640434
2025-09-11 10:29:18,1640601
2025-09-11 10:29:18,1640701
2025-09-11 10:29:18,1640720
2025-09-11 10:29:18,1640916
2025-09-11 10:29:18,1641018
2025-09-11 10:29:18,1641134
2025-09-11 10:29:18,1641221
2025-09-11 10:29:18,1641370
2025-09-11 10:29:18,1641476
2025-09-11 10:29:18,1641561
2025-09-11 10:29:18,1641699
2025-09-11 10:29:18,1641842
2025-09-11 10:29:18,1641907
2025-09-11 10:29:18,1642061
2025-09-11 10:29:18,1642159
2025-09-11 10:29:18,1642260
2025-09-11 10:29:19,1642448
2025-09-11 10:29:19,1642596
2025-09-11 10:29:19,1642637
2025-09-11 10:29:19,1642761
2025-09-11 10:29:19,1642952
2025-09-11 10:29:19,1643043
2025-09-11 10:29:19,1643197
2025-09-11 10:29:19,1643306
2025-09-11 10:29:19,1643458
2025-09-11 10:29:19,1643674
2025-09-11 10:29:19,1643702
2025-09-11 10:29:19,1643781
2025-09-11 10:29:19,1643720
2025-09-11 10:29:19,1643556
2025-09-11 10:29:19,1643414
2025-09-11 10:29:19,1643142
2025-09-11 10:29:19,1642671
2025-09-11 10:29:19,1642254
2025-09-11 10:29:19,1641867
2025-09-11 10:29:19,1641450
2025-09-11 10:29:19,1641084
2025-09-11 10:29:19,1640769
2025-09-11 10:29:19,1640492
2025-09-11 10:29:19,1640241
2025-09-11 10:29:19,1640107
2025-09-11 10:29:19,1639919
2025-09-11 10:29:19,1639749
2025-09-11 10:29:19,1639649
2025-09-11 10:29:19,1639513
2025-09-11 10:29:19,1639472
2025-09-11 10:29:19,1639453
2025-09-11 10:29:19,1639359
2025-09-11 10:29:19,1639284
2025-09-11 10:29:19,1639353
2025-09-11 10:29:19,1639388
2025-09-11 10:29:19,1639292
2025-09-11 10:29:19,1639269
2025-09-11 10:29:19,1639324
2025-09-11 10:29:19,1639372
2025-09-11 10:29:19,1639378
2025-09-11 10:29:19,1639484
2025-09-11 10:29:19,1639550
2025-09-11 10:29:19,1639735
2025-09-11 10:29:19,1639730
2025-09-11 10:29:19,1639673
2025-09-11 10:29:19,1639822
2025-09-11 10:29:19,1639855
2025-09-11 10:29:19,1639834
2025-09-11 10:29:19,1639967
2025-09-11 10:29:19,1639932
2025-09-11 10:29:19,1639904
2025-09-11 10:29:19,1639968
2025-09-11 10:29:19,1639952
2025-09-11 10:29:19,1639969
2025-09-11 10:29:19,1639889
2025-09-11 10:29:19,1639949
2025-09-11 10:29:19,1640031
2025-09-11 10:29:19,1640015
2025-09-11 10:29:19,1640098
2025-09-11 10:29:19,1640140
2025-09-11 10:29:19,1640205
2025-09-11 10:29:19,1640196
2025-09-11 10:29:19,1640267
2025-09-11 10:29:19,1640450
2025-09-11 10:29:19,1640469
2025-09-11 10:29:19,1640557
2025-09-11 10:29:19,1640587
2025-09-11 10:29:19,1640739
2025-09-11 10:29:19,1640863
2025-09-11 10:29:19,1640956
2025-09-11 10:29:19,1641089
2025-09-11 10:29:19,1641152
2025-09-11 10:29:19,1641293
2025-09-11 10:29:19,1641384
2025-09-11 10:29:19,1641529
2025-09-11 10:29:19,1641592
2025-09-11 10:29:19,1641733
2025-09-11 10:29:19,1641805
2025-09-11 10:29:19,1641959
2025-09-11 10:29:19,1642054
2025-09-11 10:29:19,1642211
2025-09-11 10:29:19,1642384
2025-09-11 10:29:19,1642438
2025-09-11 10:29:19,1642559
2025-09-11 10:29:19,1642765
2025-09-11 10:29:19,1642833
2025-09-11 10:29:19,1643017
2025-09-11 10:29:19,1643174
2025-09-11 10:29:19,1643226
2025-09-11 10:29:19,1643266
2025-09-11 10:29:19,1643188
2025-09-11 10:29:19,1643057
2025-09-11 10:29:19,1642800
2025-09-11 10:29:19,1642475
2025-09-11 10:29:19,1642036
2025-09-11 10:29:19,1641564
2025-09-11 10:29:19,1641218
2025-09-11 10:29:19,1640847
2025-09-11 10:29:19,1640568
2025-09-11 10:29:19,1640038
2025-09-11 10:29:20,1639885
2025-09-11 10:29:20,1639729
2025-09-11 10:29:20,1639478
2025-09-11 10:29:20,1639240
2025-09-11 10:29:20,1639193
2025-09-11 10:29:20,1639033
2025-09-11 10:29:20,1638961
2025-09-11 10:29:20,1638788
2025-09-11 10:29:20,1638733
2025-09-11 10:29:20,1638691
2025-09-11 10:29:20,1638571
2025-09-11 10:29:20,1638589
2025-09-11 10:29:20,1638491
2025-09-11 10:29:20,1638467
2025-09-11 10:29:20,1638464
2025-09-11 10:29:20,1638462
2025-09-11 10:29:20,1638415
2025-09-11 10:29:20,1638455
2025-09-11 10:29:20,1638563
2025-09-11 10:29:20,1638652
2025-09-11 10:29:20,1638689
2025-09-11 10:29:20,1638665
2025-09-11 10:29:20,1638735
2025-09-11 10:29:20,1638785
2025-09-11 10:29:20,1638889
2025-09-11 10:29:20,1638922
2025-09-11 10:29:20,1638850
2025-09-11 10:29:20,1638995
2025-09-11 10:29:20,1638959
2025-09-11 10:29:20,1638956
2025-09-11 10:29:20,1638975
2025-09-11 10:29:20,1639000
2025-09-11 10:29:20,1639060
2025-09-11 10:29:20,1639030
2025-09-11 10:29:20,1639086
2025-09-11 10:29:20,1639095
2025-09-11 10:29:20,1639099
2025-09-11 10:29:20,1639121
2025-09-11 10:29:20,1639214
2025-09-11 10:29:20,1639257
2025-09-11 10:29:20,1639427
2025-09-11 10:29:20,1639398
2025-09-11 10:29:20,1639523
2025-09-11 10:29:20,1639550
2025-09-11 10:29:20,1639693
2025-09-11 10:29:20,1639740
2025-09-11 10:29:20,1639794
2025-09-11 10:29:20,1639938
2025-09-11 10:29:20,1640086
2025-09-11 10:29:20,1640205
2025-09-11 10:29:20,1640266
2025-09-11 10:29:20,1640396
2025-09-11 10:29:20,1640548
2025-09-11 10:29:20,1640643
2025-09-11 10:29:20,1640740
2025-09-11 10:29:20,1640868
2025-09-11 10:29:20,1641009
2025-09-11 10:29:20,1641102
2025-09-11 10:29:20,1641178
2025-09-11 10:29:20,1641354
2025-09-11 10:29:20,1641527
2025-09-11 10:29:20,1641594
2025-09-11 10:29:20,1641744
2025-09-11 10:29:20,1641851
2025-09-11 10:29:20,1642035
2025-09-11 10:29:20,1642072
2025-09-11 10:29:20,1642229
2025-09-11 10:29:20,1642384
2025-09-11 10:29:20,1642495
2025-09-11 10:29:20,1642626
2025-09-11 10:29:20,1642785
2025-09-11 10:29:20,1642903
2025-09-11 10:29:20,1642853
2025-09-11 10:29:20,1642765
2025-09-11 10:29:20,1642461
2025-09-11 10:29:20,1642117
2025-09-11 10:29:20,1641760
2025-09-11 10:29:20,1641307
2025-09-11 10:29:20,1640799
2025-09-11 10:29:20,1640402
2025-09-11 10:29:20,1639957
2025-09-11 10:29:20,1639612
2025-09-11 10:29:20,1639380
2025-09-11 10:29:20,1639137
2025-09-11 10:29:20,1638784
2025-09-11 10:29:20,1638651
2025-09-11 10:29:20,1638471
2025-09-11 10:29:20,1638286
2025-09-11 10:29:20,1638187
2025-09-11 10:29:20,1638054
2025-09-11 10:29:20,1637937
2025-09-11 10:29:20,1637892
2025-09-11 10:29:20,1637839
2025-09-11 10:29:20,1637678
2025-09-11 10:29:20,1637665
2025-09-11 10:29:20,1637570
2025-09-11 10:29:20,1637561
2025-09-11 10:29:20,1637537
2025-09-11 10:29:20,1637501
2025-09-11 10:29:20,1637483
2025-09-11 10:29:21,1637528
2025-09-11 10:29:21,1637464
2025-09-11 10:29:21,1637574
2025-09-11 10:29:21,1637629
2025-09-11 10:29:21,1637761
2025-09-11 10:29:21,1637787
2025-09-11 10:29:21,1637739
2025-09-11 10:29:21,1637843
2025-09-11 10:29:21,1637972
2025-09-11 10:29:21,1637861
2025-09-11 10:29:21,1637902
2025-09-11 10:29:21,1637918
2025-09-11 10:29:21,1637867
2025-09-11 10:29:21,1637939
2025-09-11 10:29:21,1637912
2025-09-11 10:29:21,1637975
2025-09-11 10:29:21,1638080
2025-09-11 10:29:21,1638132
2025-09-11 10:29:21,1638069
2025-09-11 10:29:21,1638135
2025-09-11 10:29:21,1638098
2025-09-11 10:29:21,1638214
2025-09-11 10:29:21,1638256
2025-09-11 10:29:21,1638298
2025-09-11 10:29:21,1638371
2025-09-11 10:29:21,1638443
2025-09-11 10:29:21,1638530
2025-09-11 10:29:21,1638610
2025-09-11 10:29:21,1638723
2025-09-11 10:29:21,1638771
2025-09-11 10:29:21,1638934
2025-09-11 10:29:21,1638885
2025-09-11 10:29:21,1639083
2025-09-11 10:29:21,1639233
2025-09-11 10:29:21,1639373
2025-09-11 10:29:21,1639445
2025-09-11 10:29:21,1639577
2025-09-11 10:29:21,1639693
2025-09-11 10:29:21,1639760
2025-09-11 10:29:21,1639925
2025-09-11 10:29:21,1640020
2025-09-11 10:29:21,1640150
2025-09-11 10:29:21,1640338
2025-09-11 10:29:21,1640487
2025-09-11 10:29:21,1640633
2025-09-11 10:29:21,1640735
2025-09-11 10:29:21,1640790
2025-09-11 10:29:21,1640858
2025-09-11 10:29:21,1641056
2025-09-11 10:29:21,1641217
2025-09-11 10:29:21,1641294
2025-09-11 10:29:21,1641492
2025-09-11 10:29:21,1641502
2025-09-11 10:29:21,1641698
2025-09-11 10:29:21,1641819
2025-09-11 10:29:21,1641981
2025-09-11 10:29:21,1642119
2025-09-11 10:29:21,1642230
2025-09-11 10:29:21,1642286
2025-09-11 10:29:21,1642359
2025-09-11 10:29:21,1642149
2025-09-11 10:29:21,1641865
2025-09-11 10:29:21,1641596
2025-09-11 10:29:21,1641169
2025-09-11 10:29:21,1640799
2025-09-11 10:29:21,1640284
2025-09-11 10:29:21,1639846
2025-09-11 10:29:21,1639481
2025-09-11 10:29:21,1639135
2025-09-11 10:29:21,1638817
2025-09-11 10:29:21,1638704
2025-09-11 10:29:21,1638353
2025-09-11 10:29:21,1638029
2025-09-11 10:29:21,1637959
2025-09-11 10:29:21,1637816
2025-09-11 10:29:21,1637676
2025-09-11 10:29:21,1637691
2025-09-11 10:29:21,1637467
2025-09-11 10:29:21,1637406
2025-09-11 10:29:21,1637304
2025-09-11 10:29:21,1637329
2025-09-11 10:29:21,1637199
2025-09-11 10:29:21,1637148
2025-09-11 10:29:21,1637131
2025-09-11 10:29:21,1637067
2025-09-11 10:29:21,1637087
2025-09-11 10:29:21,1637037
2025-09-11 10:29:21,1637026
2025-09-11 10:29:21,1637146
2025-09-11 10:29:21,1637240
2025-09-11 10:29:21,1637288
2025-09-11 10:29:21,1637305
2025-09-11 10:29:21,1637346
2025-09-11 10:29:21,1637412
2025-09-11 10:29:21,1637398
2025-09-11 10:29:21,1637471
2025-09-11 10:29:21,1637492
2025-09-11 10:29:21,1637627
2025-09-11 10:29:21,1637596
2025-09-11 10:29:21,1637583
2025-09-11 10:29:22,1637565
2025-09-11 10:29:22,1637580
2025-09-11 10:29:22,1637591
2025-09-11 10:29:22,1637557
2025-09-11 10:29:22,1637646
2025-09-11 10:29:22,1637691
2025-09-11 10:29:22,1637708
2025-09-11 10:29:22,1637714
2025-09-11 10:29:22,1637801
2025-09-11 10:29:22,1637862
2025-09-11 10:29:22,1637907
2025-09-11 10:29:22,1637969
2025-09-11 10:29:22,1637970
2025-09-11 10:29:22,1638140
2025-09-11 10:29:22,1638307
2025-09-11 10:29:22,1638336
2025-09-11 10:29:22,1638434
2025-09-11 10:29:22,1638537
2025-09-11 10:29:22,1638666
2025-09-11 10:29:22,1638689
2025-09-11 10:29:22,1638891
2025-09-11 10:29:22,1638990
2025-09-11 10:29:22,1639099
2025-09-11 10:29:22,1639206
2025-09-11 10:29:22,1639332
2025-09-11 10:29:22,1639518
2025-09-11 10:29:22,1639535
2025-09-11 10:29:22,1639733
2025-09-11 10:29:22,1639796
2025-09-11 10:29:22,1639905
2025-09-11 10:29:22,1639995
2025-09-11 10:29:22,1640225
2025-09-11 10:29:22,1640369
2025-09-11 10:29:22,1640403
2025-09-11 10:29:22,1640595
2025-09-11 10:29:22,1640650
2025-09-11 10:29:22,1640834
2025-09-11 10:29:22,1640889
2025-09-11 10:29:22,1641052
2025-09-11 10:29:22,1641217
2025-09-11 10:29:22,1641379
2025-09-11 10:29:22,1641472
2025-09-11 10:29:22,1641561
2025-09-11 10:29:22,1641635
2025-09-11 10:29:22,1641800
2025-09-11 10:29:22,1641689
2025-09-11 10:29:22,1641577
2025-09-11 10:29:22,1641297
2025-09-11 10:29:22,1640999
2025-09-11 10:29:22,1640678
2025-09-11 10:29:22,1640187
2025-09-11 10:29:22,1639760
2025-09-11 10:29:22,1639344
2025-09-11 10:29:22,1638882
2025-09-11 10:29:22,1638540
2025-09-11 10:29:22,1638274
2025-09-11 10:29:22,1638125
2025-09-11 10:29:22,1637928
2025-09-11 10:29:22,1637761
2025-09-11 10:29:22,1637509
2025-09-11 10:29:22,1637416
2025-09-11 10:29:22,1637310
2025-09-11 10:29:22,1637242
2025-09-11 10:29:22,1637187
2025-09-11 10:29:22,1637080
2025-09-11 10:29:22,1637020
2025-09-11 10:29:22,1637014
2025-09-11 10:29:22,1636936
2025-09-11 10:29:22,1636908
2025-09-11 10:29:22,1636881
2025-09-11 10:29:22,1636834
2025-09-11 10:29:22,1636821
2025-09-11 10:29:22,1636827
2025-09-11 10:29:22,1636904
2025-09-11 10:29:22,1636855
2025-09-11 10:29:22,1636986
2025-09-11 10:29:22,1637086
2025-09-11 10:29:22,1637132
2025-09-11 10:29:22,1637091
2025-09-11 10:29:22,1637187
2025-09-11 10:29:22,1637186
2025-09-11 10:29:22,1637200
2025-09-11 10:29:22,1637262
2025-09-11 10:29:22,1637332
2025-09-11 10:29:22,1637275
2025-09-11 10:29:22,1637245
2025-09-11 10:29:22,1637427
2025-09-11 10:29:22,1637406
2025-09-11 10:29:22,1637467
2025-09-11 10:29:22,1637518
2025-09-11 10:29:22,1637568
2025-09-11 10:29:22,1637587
2025-09-11 10:29:22,1637707
2025-09-11 10:29:22,1637778
2025-09-11 10:29:22,1637913
2025-09-11 10:29:22,1638007
2025-09-11 10:29:22,1638136
2025-09-11 10:29:22,1638303
2025-09-11 10:29:22,1638423
2025-09-11 10:29:22,1638565
2025-09-11 10:29:23,1638655
2025-09-11 10:29:23,1638617
2025-09-11 10:29:23,1638747
2025-09-11 10:29:23,1638819
2025-09-11 10:29:23,1638884
2025-09-11 10:29:23,1638998
2025-09-11 10:29:23,1639079
2025-09-11 10:29:23,1639180
2025-09-11 10:29:23,1639169
2025-09-11 10:29:23,1639331
2025-09-11 10:29:23,1639451
2025-09-11 10:29:23,1639550
2025-09-11 10:29:23,1639695
2025-09-11 10:29:23,1639829
2025-09-11 10:29:23,1639984
2025-09-11 10:29:23,1640035
2025-09-11 10:29:23,1640152
2025-09-11 10:29:23,1640300
2025-09-11 10:29:23,1640324
2025-09-11 10:29:23,1640471
2025-09-11 10:29:23,1640554
2025-09-11 10:29:23,1640696
2025-09-11 10:29:23,1640840
2025-09-11 10:29:23,1640964
2025-09-11 10:29:23,1641112
2025-09-11 10:29:23,1641222
2025-09-11 10:29:23,1641306
2025-09-11 10:29:23,1641486
2025-09-11 10:29:23,1641643
2025-09-11 10:29:23,1641675
2025-09-11 10:29:23,1641865
2025-09-11 10:29:23,1641959
2025-09-11 10:29:23,1642107
2025-09-11 10:29:23,1642105
2025-09-11 10:29:23,1641905
2025-09-11 10:29:23,1641698
2025-09-11 10:29:23,1641367
2025-09-11 10:29:23,1640972
2025-09-11 10:29:23,1640436
2025-09-11 10:29:23,1640052
2025-09-11 10:29:23,1639600
2025-09-11 10:29:23,1639196
2025-09-11 10:29:23,1638861
2025-09-11 10:29:23,1638539
2025-09-11 10:29:23,1638307
2025-09-11 10:29:23,1638185
2025-09-11 10:29:23,1637985
2025-09-11 10:29:23,1637790
2025-09-11 10:29:23,1637624
2025-09-11 10:29:23,1637516
2025-09-11 10:29:23,1637485
2025-09-11 10:29:23,1637506
2025-09-11 10:29:23,1637450
2025-09-11 10:29:23,1637344
2025-09-11 10:29:23,1637394
2025-09-11 10:29:23,1637335
2025-09-11 10:29:23,1637389
2025-09-11 10:29:23,1637407
2025-09-11 10:29:23,1637486
2025-09-11 10:29:23,1637627
2025-09-11 10:29:23,1637709
2025-09-11 10:29:23,1637831
2025-09-11 10:29:23,1637896
2025-09-11 10:29:23,1637941
2025-09-11 10:29:23,1638021
2025-09-11 10:29:23,1638144
2025-09-11 10:29:23,1638241
2025-09-11 10:29:23,1638201
2025-09-11 10:29:23,1638170
2025-09-11 10:29:23,1638218
2025-09-11 10:29:23,1638202
2025-09-11 10:29:23,1638242
2025-09-11 10:29:23,1638202
2025-09-11 10:29:23,1638184
2025-09-11 10:29:23,1638145
2025-09-11 10:29:23,1638137
2025-09-11 10:29:23,1638101
2025-09-11 10:29:23,1638116
2025-09-11 10:29:23,1638032
2025-09-11 10:29:23,1638153
2025-09-11 10:29:23,1638171
2025-09-11 10:29:23,1638100
2025-09-11 10:29:23,1638255
2025-09-11 10:29:23,1638264
2025-09-11 10:29:23,1638308
2025-09-11 10:29:23,1638425
2025-09-11 10:29:23,1638532
2025-09-11 10:29:23,1638525
2025-09-11 10:29:23,1638680
2025-09-11 10:29:23,1638701
2025-09-11 10:29:23,1638743
2025-09-11 10:29:23,1638849
2025-09-11 10:29:23,1639013
2025-09-11 10:29:23,1639111
2025-09-11 10:29:23,1639184
2025-09-11 10:29:23,1639290
2025-09-11 10:29:23,1639311
2025-09-11 10:29:23,1639448
2025-09-11 10:29:23,1639568
2025-09-11 10:29:23,1639622
2025-09-11 10:29:24,1639826
2025-09-11 10:29:24,1639836
2025-09-11 10:29:24,1639984
2025-09-11 10:29:24,1640066
2025-09-11 10:29:24,1640158
2025-09-11 10:29:24,1640344
2025-09-11 10:29:24,1640438
2025-09-11 10:29:24,1640510
2025-09-11 10:29:24,1640640
2025-09-11 10:29:24,1640806
2025-09-11 10:29:24,1640863
2025-09-11 10:29:24,1641030
2025-09-11 10:29:24,1641128
2025-09-11 10:29:24,1641282
2025-09-11 10:29:24,1641450
2025-09-11 10:29:24,1641508
2025-09-11 10:29:24,1641699
2025-09-11 10:29:24,1641630
2025-09-11 10:29:24,1641418
2025-09-11 10:29:24,1641112
2025-09-11 10:29:24,1640865
2025-09-11 10:29:24,1640427
2025-09-11 10:29:24,1640178
2025-09-11 10:29:24,1639648
2025-09-11 10:29:24,1639255
2025-09-11 10:29:24,1638875
2025-09-11 10:29:24,1638657
2025-09-11 10:29:24,1638327
2025-09-11 10:29:24,1638145
2025-09-11 10:29:24,1637921
2025-09-11 10:29:24,1637825
2025-09-11 10:29:24,1637611
2025-09-11 10:29:24,1637502
2025-09-11 10:29:24,1637415
2025-09-11 10:29:24,1637227
2025-09-11 10:29:24,1637051
2025-09-11 10:29:24,1636874
2025-09-11 10:29:24,1636475
2025-09-11 10:29:24,1636155
2025-09-11 10:29:24,1635614
2025-09-11 10:29:24,1634937
2025-09-11 10:29:24,1633864
2025-09-11 10:29:24,1632972
2025-09-11 10:29:24,1631749
2025-09-11 10:29:24,1630870
2025-09-11 10:29:24,1629867
2025-09-11 10:29:24,1629001
2025-09-11 10:29:24,1628126
2025-09-11 10:29:24,1627430
2025-09-11 10:29:24,1626752
2025-09-11 10:29:24,1626208
2025-09-11 10:29:24,1625655
2025-09-11 10:29:24,1625196
2025-09-11 10:29:24,1624961
2025-09-11 10:29:24,1624746
2025-09-11 10:29:24,1624582
2025-09-11 10:29:24,1624490
2025-09-11 10:29:24,1624548
2025-09-11 10:29:24,1624600
2025-09-11 10:29:24,1624711
2025-09-11 10:29:24,1624791
2025-09-11 10:29:24,1624782
2025-09-11 10:29:24,1624959
2025-09-11 10:29:24,1625108
2025-09-11 10:29:24,1625175
2025-09-11 10:29:24,1625343
2025-09-11 10:29:24,1625544
2025-09-11 10:29:24,1625628
2025-09-11 10:29:24,1625907
2025-09-11 10:29:24,1625954
2025-09-11 10:29:24,1626197
2025-09-11 10:29:24,1626379
2025-09-11 10:29:24,1626516
2025-09-11 10:29:24,1626799
2025-09-11 10:29:24,1627000
2025-09-11 10:29:24,1627270
2025-09-11 10:29:24,1627451
2025-09-11 10:29:24,1627647
2025-09-11 10:29:24,1627957
2025-09-11 10:29:24,1628216
2025-09-11 10:29:24,1628443
2025-09-11 10:29:24,1628562
2025-09-11 10:29:24,1628730
2025-09-11 10:29:24,1628791
2025-09-11 10:29:24,1628981
2025-09-11 10:29:24,1629206
2025-09-11 10:29:24,1629307
2025-09-11 10:29:24,1629663
2025-09-11 10:29:24,1629925
2025-09-11 10:29:24,1630074
2025-09-11 10:29:24,1630358
2025-09-11 10:29:24,1630441
2025-09-11 10:29:24,1630625
2025-09-11 10:29:24,1630748
2025-09-11 10:29:24,1630789
2025-09-11 10:29:24,1630840
2025-09-11 10:29:24,1630943
2025-09-11 10:29:24,1630875
2025-09-11 10:29:24,1630536
2025-09-11 10:29:24,1630075
2025-09-11 10:29:24,1629545
2025-09-11 10:29:25,1629227
2025-09-11 10:29:25,1628812
2025-09-11 10:29:25,1628456
2025-09-11 10:29:25,1628088
2025-09-11 10:29:25,1627731
2025-09-11 10:29:25,1627372
2025-09-11 10:29:25,1627088
2025-09-11 10:29:25,1626806
2025-09-11 10:29:25,1626405
2025-09-11 10:29:25,1626012
2025-09-11 10:29:25,1625757
2025-09-11 10:29:25,1625382
2025-09-11 10:29:25,1624959
2025-09-11 10:29:25,1624503
2025-09-11 10:29:25,1623961
2025-09-11 10:29:25,1623352
2025-09-11 10:29:25,1622640
2025-09-11 10:29:25,1622118
2025-09-11 10:29:25,1621607
2025-09-11 10:29:25,1621012
2025-09-11 10:29:25,1620777
2025-09-11 10:29:25,1620766
2025-09-11 10:29:25,1620727
2025-09-11 10:29:25,1620778
2025-09-11 10:29:25,1620905
2025-09-11 10:29:25,1621156
2025-09-11 10:29:25,1621335
2025-09-11 10:29:25,1621485
2025-09-11 10:29:25,1621896
2025-09-11 10:29:25,1622303
2025-09-11 10:29:25,1622810
2025-09-11 10:29:25,1623285
2025-09-11 10:29:25,1623703
2025-09-11 10:29:25,1623958
2025-09-11 10:29:25,1623692
2025-09-11 10:29:25,1623526
2025-09-11 10:29:25,1623430
2025-09-11 10:29:25,1623513
2025-09-11 10:29:25,1623715
2025-09-11 10:29:25,1624066
2025-09-11 10:29:25,1624554
2025-09-11 10:29:25,1625008
2025-09-11 10:29:25,1625585
2025-09-11 10:29:25,1626273
2025-09-11 10:29:25,1627092
2025-09-11 10:29:25,1627776
2025-09-11 10:29:25,1628519
2025-09-11 10:29:25,1629371
2025-09-11 10:29:25,1630317
2025-09-11 10:29:25,1631180
2025-09-11 10:29:25,1632205
2025-09-11 10:29:25,1633236
2025-09-11 10:29:25,1634239
2025-09-11 10:29:25,1635322
2025-09-11 10:29:25,1636341
2025-09-11 10:29:25,1637148
2025-09-11 10:29:25,1637781
2025-09-11 10:29:25,1638529
2025-09-11 10:29:25,1639238
2025-09-11 10:29:25,1639605
2025-09-11 10:29:25,1639517
2025-09-11 10:29:25,1639525
2025-09-11 10:29:25,1639348
2025-09-11 10:29:25,1639153
2025-09-11 10:29:25,1638857
2025-09-11 10:29:25,1638519
2025-09-11 10:29:25,1638322
2025-09-11 10:29:25,1638117
2025-09-11 10:29:25,1638043
2025-09-11 10:29:25,1637898
2025-09-11 10:29:25,1637783
2025-09-11 10:29:25,1637735
2025-09-11 10:29:25,1637659
2025-09-11 10:29:25,1637677
2025-09-11 10:29:25,1637583
2025-09-11 10:29:25,1637610
2025-09-11 10:29:25,1637610
2025-09-11 10:29:25,1637608
2025-09-11 10:29:25,1637731
2025-09-11 10:29:25,1637911
2025-09-11 10:29:25,1637999
2025-09-11 10:29:25,1638122
2025-09-11 10:29:25,1638080
2025-09-11 10:29:25,1638298
2025-09-11 10:29:25,1638198
2025-09-11 10:29:25,1638332
2025-09-11 10:29:25,1638229
2025-09-11 10:29:25,1638110
2025-09-11 10:29:25,1637808
2025-09-11 10:29:25,1637432
2025-09-11 10:29:25,1636995
2025-09-11 10:29:25,1636430
2025-09-11 10:29:25,1635846
2025-09-11 10:29:25,1635369
2025-09-11 10:29:25,1634820
2025-09-11 10:29:25,1634384
2025-09-11 10:29:25,1634043
2025-09-11 10:29:25,1633741
2025-09-11 10:29:25,1633427
2025-09-11 10:29:25,1633181
2025-09-11 10:29:26,1632983
2025-09-11 10:29:26,1632703
2025-09-11 10:29:26,1632602
2025-09-11 10:29:26,1632602
2025-09-11 10:29:26,1632399
2025-09-11 10:29:26,1632177
2025-09-11 10:29:26,1632028
2025-09-11 10:29:26,1631899
2025-09-11 10:29:26,1631827
2025-09-11 10:29:26,1631665
2025-09-11 10:29:26,1631610
2025-09-11 10:29:26,1631517
2025-09-11 10:29:26,1631372
2025-09-11 10:29:26,1631321
2025-09-11 10:29:26,1631294
2025-09-11 10:29:26,1631239
2025-09-11 10:29:26,1631269
2025-09-11 10:29:26,1631380
2025-09-11 10:29:26,1631317
2025-09-11 10:29:26,1631442
2025-09-11 10:29:26,1631404
2025-09-11 10:29:26,1631396
2025-09-11 10:29:26,1631329
2025-09-11 10:29:26,1631419
2025-09-11 10:29:26,1631420
2025-09-11 10:29:26,1631336
2025-09-11 10:29:26,1631338
2025-09-11 10:29:26,1631302
2025-09-11 10:29:26,1631303
2025-09-11 10:29:26,1631215
2025-09-11 10:29:26,1631201
2025-09-11 10:29:26,1631121
2025-09-11 10:29:26,1631054
2025-09-11 10:29:26,1631074
2025-09-11 10:29:26,1630999
2025-09-11 10:29:26,1631016
2025-09-11 10:29:26,1631126
2025-09-11 10:29:26,1631119
2025-09-11 10:29:26,1631184
2025-09-11 10:29:26,1631287
2025-09-11 10:29:26,1631237
2025-09-11 10:29:26,1631136
2025-09-11 10:29:26,1631257
2025-09-11 10:29:26,1631377
2025-09-11 10:29:26,1631385
2025-09-11 10:29:26,1631468
2025-09-11 10:29:26,1631570
2025-09-11 10:29:26,1631688
2025-09-11 10:29:26,1631727
2025-09-11 10:29:26,1631762
2025-09-11 10:29:26,1631861
2025-09-11 10:29:26,1631952
2025-09-11 10:29:26,1632101
2025-09-11 10:29:26,1632195
2025-09-11 10:29:26,1632264
2025-09-11 10:29:26,1632395
2025-09-11 10:29:26,1632472
2025-09-11 10:29:26,1632571
2025-09-11 10:29:26,1632641
2025-09-11 10:29:26,1632783
2025-09-11 10:29:26,1632818
2025-09-11 10:29:26,1632942
2025-09-11 10:29:26,1633081
2025-09-11 10:29:26,1633070
2025-09-11 10:29:26,1633243
2025-09-11 10:29:26,1633385
2025-09-11 10:29:26,1633436
2025-09-11 10:29:26,1633608
2025-09-11 10:29:26,1633635
2025-09-11 10:29:26,1633796
2025-09-11 10:29:26,1633819
2025-09-11 10:29:26,1633983
2025-09-11 10:29:26,1633979
2025-09-11 10:29:26,1633976
2025-09-11 10:29:26,1633732
2025-09-11 10:29:26,1633389
2025-09-11 10:29:26,1633003
2025-09-11 10:29:26,1632561
2025-09-11 10:29:26,1631992
2025-09-11 10:29:26,1631492
2025-09-11 10:29:26,1631104
2025-09-11 10:29:26,1630716
2025-09-11 10:29:26,1630283
2025-09-11 10:29:26,1629905
2025-09-11 10:29:26,1629709
2025-09-11 10:29:26,1629484
2025-09-11 10:29:26,1629328
2025-09-11 10:29:26,1629209
2025-09-11 10:29:26,1628950
2025-09-11 10:29:26,1628944
2025-09-11 10:29:26,1628689
2025-09-11 10:29:26,1628694
2025-09-11 10:29:26,1628602
2025-09-11 10:29:26,1628457
2025-09-11 10:29:26,1628385
2025-09-11 10:29:26,1628167
2025-09-11 10:29:26,1627879
2025-09-11 10:29:26,1627518
2025-09-11 10:29:26,1627017
2025-09-11 10:29:26,1626412
2025-09-11 10:29:26,1625842
2025-09-11 10:29:27,1625294
2025-09-11 10:29:27,1624956
2025-09-11 10:29:27,1624557
2025-09-11 10:29:27,1624400
2025-09-11 10:29:27,1624208
2025-09-11 10:29:27,1624135
2025-09-11 10:29:27,1624107
2025-09-11 10:29:27,1624156
2025-09-11 10:29:27,1624255
2025-09-11 10:29:27,1624322
2025-09-11 10:29:27,1624622
2025-09-11 10:29:27,1624701
2025-09-11 10:29:27,1624880
2025-09-11 10:29:27,1625018
2025-09-11 10:29:27,1625220
2025-09-11 10:29:27,1625485
2025-09-11 10:29:27,1625672
2025-09-11 10:29:27,1625824
2025-09-11 10:29:27,1626035
2025-09-11 10:29:27,1626217
2025-09-11 10:29:27,1626395
2025-09-11 10:29:27,1626539
2025-09-11 10:29:27,1626731
2025-09-11 10:29:27,1626873
2025-09-11 10:29:27,1627027
2025-09-11 10:29:27,1627185
2025-09-11 10:29:27,1627489
2025-09-11 10:29:27,1627599
2025-09-11 10:29:27,1627715
2025-09-11 10:29:27,1627838
2025-09-11 10:29:27,1628022
2025-09-11 10:29:27,1628193
2025-09-11 10:29:27,1628357
2025-09-11 10:29:27,1628455
2025-09-11 10:29:27,1628488
2025-09-11 10:29:27,1628680
2025-09-11 10:29:27,1628854
2025-09-11 10:29:27,1628965
2025-09-11 10:29:27,1629056
2025-09-11 10:29:27,1629133
2025-09-11 10:29:27,1629266
2025-09-11 10:29:27,1629444
2025-09-11 10:29:27,1629512
2025-09-11 10:29:27,1629658
2025-09-11 10:29:27,1629782
2025-09-11 10:29:27,1629891
2025-09-11 10:29:27,1630022
2025-09-11 10:29:27,1630173
2025-09-11 10:29:27,1630299
2025-09-11 10:29:27,1630475
2025-09-11 10:29:27,1630546
2025-09-11 10:29:27,1630727
2025-09-11 10:29:27,1630799
2025-09-11 10:29:27,1630943
2025-09-11 10:29:27,1631103
2025-09-11 10:29:27,1631212
2025-09-11 10:29:27,1631310
2025-09-11 10:29:27,1631430
2025-09-11 10:29:27,1631425
2025-09-11 10:29:27,1631292
2025-09-11 10:29:27,1631013
2025-09-11 10:29:27,1630520
2025-09-11 10:29:27,1629969
2025-09-11 10:29:27,1629391
2025-09-11 10:29:27,1628926
2025-09-11 10:29:27,1628448
2025-09-11 10:29:27,1628051
2025-09-11 10:29:27,1627668
2025-09-11 10:29:27,1627355
2025-09-11 10:29:27,1627003
2025-09-11 10:29:27,1626820
2025-09-11 10:29:27,1626631
2025-09-11 10:29:27,1626415
2025-09-11 10:29:27,1626191
2025-09-11 10:29:27,1626130
2025-09-11 10:29:27,1626030
2025-09-11 10:29:27,1625932
2025-09-11 10:29:27,1625832
2025-09-11 10:29:27,1625766
2025-09-11 10:29:27,1625618
2025-09-11 10:29:27,1625548
2025-09-11 10:29:27,1625487
2025-09-11 10:29:27,1625469
2025-09-11 10:29:27,1625366
2025-09-11 10:29:27,1625341
2025-09-11 10:29:27,1625334
2025-09-11 10:29:27,1625347
2025-09-11 10:29:27,1625340
2025-09-11 10:29:27,1625488
2025-09-11 10:29:27,1625419
2025-09-11 10:29:27,1625497
2025-09-11 10:29:27,1625661
2025-09-11 10:29:27,1625620
2025-09-11 10:29:27,1625669
2025-09-11 10:29:27,1625717
2025-09-11 10:29:27,1625712
2025-09-11 10:29:27,1625723
2025-09-11 10:29:27,1625681
2025-09-11 10:29:27,1625752
2025-09-11 10:29:28,1625695
2025-09-11 10:29:28,1625684
2025-09-11 10:29:28,1625598
2025-09-11 10:29:28,1625715
2025-09-11 10:29:28,1625645
2025-09-11 10:29:28,1625697
2025-09-11 10:29:28,1625707
2025-09-11 10:29:28,1625765
2025-09-11 10:29:28,1625812
2025-09-11 10:29:28,1625849
2025-09-11 10:29:28,1625857
2025-09-11 10:29:28,1625891
2025-09-11 10:29:28,1625983
2025-09-11 10:29:28,1626117
2025-09-11 10:29:28,1626170
2025-09-11 10:29:28,1626333
2025-09-11 10:29:28,1626356
2025-09-11 10:29:28,1626469
2025-09-11 10:29:28,1626518
2025-09-11 10:29:28,1626568
2025-09-11 10:29:28,1626781
2025-09-11 10:29:28,1626837
2025-09-11 10:29:28,1626893
2025-09-11 10:29:28,1627080
2025-09-11 10:29:28,1627132
2025-09-11 10:29:28,1627277
2025-09-11 10:29:28,1627373
2025-09-11 10:29:28,1627410
2025-09-11 10:29:28,1627616
2025-09-11 10:29:28,1627720
2025-09-11 10:29:28,1627793
2025-09-11 10:29:28,1627977
2025-09-11 10:29:28,1627979
2025-09-11 10:29:28,1628218
2025-09-11 10:29:28,1628304
2025-09-11 10:29:28,1628392
2025-09-11 10:29:28,1628555
2025-09-11 10:29:28,1628714
2025-09-11 10:29:28,1628802
2025-09-11 10:29:28,1628870
2025-09-11 10:29:28,1629026
2025-09-11 10:29:28,1629138
2025-09-11 10:29:28,1629302
2025-09-11 10:29:28,1629343
2025-09-11 10:29:28,1629545
2025-09-11 10:29:28,1629589
2025-09-11 10:29:28,1629695
2025-09-11 10:29:28,1629552
2025-09-11 10:29:28,1629333
2025-09-11 10:29:28,1628889
2025-09-11 10:29:28,1628525
2025-09-11 10:29:28,1627915
2025-09-11 10:29:28,1627438
2025-09-11 10:29:28,1626870
2025-09-11 10:29:28,1626423
2025-09-11 10:29:28,1626157
2025-09-11 10:29:28,1625681
2025-09-11 10:29:28,1625436
2025-09-11 10:29:28,1625214
2025-09-11 10:29:28,1624995
2025-09-11 10:29:28,1624793
2025-09-11 10:29:28,1624721
2025-09-11 10:29:28,1624523
2025-09-11 10:29:28,1624357
2025-09-11 10:29:28,1624306
2025-09-11 10:29:28,1624321
2025-09-11 10:29:28,1624145
2025-09-11 10:29:28,1624140
2025-09-11 10:29:28,1624116
2025-09-11 10:29:28,1624016
2025-09-11 10:29:28,1623999
2025-09-11 10:29:28,1623983
2025-09-11 10:29:28,1623979
2025-09-11 10:29:28,1624014
2025-09-11 10:29:28,1623979
2025-09-11 10:29:28,1623999
2025-09-11 10:29:28,1624078
2025-09-11 10:29:28,1624127
2025-09-11 10:29:28,1624243
2025-09-11 10:29:28,1624225
2025-09-11 10:29:28,1624305
2025-09-11 10:29:28,1624361
2025-09-11 10:29:28,1624368
2025-09-11 10:29:28,1624391
2025-09-11 10:29:28,1624410
2025-09-11 10:29:28,1624452
2025-09-11 10:29:28,1624374
2025-09-11 10:29:28,1624353
2025-09-11 10:29:28,1624389
2025-09-11 10:29:28,1624331
2025-09-11 10:29:28,1624325
2025-09-11 10:29:28,1624318
2025-09-11 10:29:28,1624324
2025-09-11 10:29:28,1624419
2025-09-11 10:29:28,1624416
2025-09-11 10:29:28,1624527
2025-09-11 10:29:28,1624601
2025-09-11 10:29:28,1624592
2025-09-11 10:29:28,1624589
2025-09-11 10:29:28,1624677
2025-09-11 10:29:29,1624756
2025-09-11 10:29:29,1624795
2025-09-11 10:29:29,1624952
2025-09-11 10:29:29,1624978
2025-09-11 10:29:29,1625149
2025-09-11 10:29:29,1625171
2025-09-11 10:29:29,1625314
2025-09-11 10:29:29,1625472
2025-09-11 10:29:29,1625567
2025-09-11 10:29:29,1625689
2025-09-11 10:29:29,1625807
2025-09-11 10:29:29,1625936
2025-09-11 10:29:29,1626026
2025-09-11 10:29:29,1626098
2025-09-11 10:29:29,1626263
2025-09-11 10:29:29,1626378
2025-09-11 10:29:29,1626536
2025-09-11 10:29:29,1626639
2025-09-11 10:29:29,1626702
2025-09-11 10:29:29,1626890
2025-09-11 10:29:29,1627033
2025-09-11 10:29:29,1627063
2025-09-11 10:29:29,1627245
2025-09-11 10:29:29,1627266
2025-09-11 10:29:29,1627464
2025-09-11 10:29:29,1627618
2025-09-11 10:29:29,1627695
2025-09-11 10:29:29,1627864
2025-09-11 10:29:29,1628049
2025-09-11 10:29:29,1628013
2025-09-11 10:29:29,1628112
2025-09-11 10:29:29,1627902
2025-09-11 10:29:29,1627697
2025-09-11 10:29:29,1627238
2025-09-11 10:29:29,1626873
2025-09-11 10:29:29,1626214
2025-09-11 10:29:29,1625837
2025-09-11 10:29:29,1625300
2025-09-11 10:29:29,1624938
2025-09-11 10:29:29,1624574
2025-09-11 10:29:29,1624232
2025-09-11 10:29:29,1624081
2025-09-11 10:29:29,1623852
2025-09-11 10:29:29,1623574
2025-09-11 10:29:29,1623493
2025-09-11 10:29:29,1623411
2025-09-11 10:29:29,1623293
2025-09-11 10:29:29,1623307
2025-09-11 10:29:29,1623270
2025-09-11 10:29:29,1623175
2025-09-11 10:29:29,1623123
2025-09-11 10:29:29,1623140
2025-09-11 10:29:29,1623036
2025-09-11 10:29:29,1623119
2025-09-11 10:29:29,1623166
2025-09-11 10:29:29,1623097
2025-09-11 10:29:29,1623069
2025-09-11 10:29:29,1623064
2025-09-11 10:29:29,1623168
2025-09-11 10:29:29,1623296
2025-09-11 10:29:29,1623376
2025-09-11 10:29:29,1623503
2025-09-11 10:29:29,1623517
2025-09-11 10:29:29,1623598
2025-09-11 10:29:29,1623583
2025-09-11 10:29:29,1623671
2025-09-11 10:29:29,1623622
2025-09-11 10:29:29,1623711
2025-09-11 10:29:29,1623642
2025-09-11 10:29:29,1623686
2025-09-11 10:29:29,1623664
2025-09-11 10:29:29,1623707
2025-09-11 10:29:29,1623613
2025-09-11 10:29:29,1623688
2025-09-11 10:29:29,1623601
2025-09-11 10:29:29,1623633
2025-09-11 10:29:29,1623702
2025-09-11 10:29:29,1623688
2025-09-11 10:29:29,1623778
2025-09-11 10:29:29,1623878
2025-09-11 10:29:29,1623894
2025-09-11 10:29:29,1623948
2025-09-11 10:29:29,1624021
2025-09-11 10:29:29,1624157
2025-09-11 10:29:29,1624200
2025-09-11 10:29:29,1624339
2025-09-11 10:29:29,1624423
2025-09-11 10:29:29,1624547
2025-09-11 10:29:29,1624682
2025-09-11 10:29:29,1624746
2025-09-11 10:29:29,1624900
2025-09-11 10:29:29,1624982
2025-09-11 10:29:29,1625130
2025-09-11 10:29:29,1625206
2025-09-11 10:29:29,1625256
2025-09-11 10:29:29,1625396
2025-09-11 10:29:29,1625559
2025-09-11 10:29:29,1625652
2025-09-11 10:29:29,1625778
2025-09-11 10:29:29,1625969
2025-09-11 10:29:30,1626053
2025-09-11 10:29:30,1626117
2025-09-11 10:29:30,1626300
2025-09-11 10:29:30,1626410
2025-09-11 10:29:30,1626597
2025-09-11 10:29:30,1626614
2025-09-11 10:29:30,1626773
2025-09-11 10:29:30,1626952
2025-09-11 10:29:30,1627008
2025-09-11 10:29:30,1627187
2025-09-11 10:29:30,1627154
2025-09-11 10:29:30,1627056
2025-09-11 10:29:30,1626852
2025-09-11 10:29:30,1626504
2025-09-11 10:29:30,1625970
2025-09-11 10:29:30,1625460
2025-09-11 10:29:30,1624913
2025-09-11 10:29:30,1624454
2025-09-11 10:29:30,1624073
2025-09-11 10:29:30,1623695
2025-09-11 10:29:30,1623359
2025-09-11 10:29:30,1623107
2025-09-11 10:29:30,1622839
2025-09-11 10:29:30,1622642
2025-09-11 10:29:30,1622507
2025-09-11 10:29:30,1622362
2025-09-11 10:29:30,1622281
2025-09-11 10:29:30,1622113
2025-09-11 10:29:30,1622004
2025-09-11 10:29:30,1621972
2025-09-11 10:29:30,1621888
2025-09-11 10:29:30,1621777
2025-09-11 10:29:30,1621677
2025-09-11 10:29:30,1621724
2025-09-11 10:29:30,1621681
2025-09-11 10:29:30,1621656
2025-09-11 10:29:30,1621649
2025-09-11 10:29:30,1621583
2025-09-11 10:29:30,1621640
2025-09-11 10:29:30,1621721
2025-09-11 10:29:30,1621689
2025-09-11 10:29:30,1621797
2025-09-11 10:29:30,1621869
2025-09-11 10:29:30,1621915
2025-09-11 10:29:30,1621963
2025-09-11 10:29:30,1622012
2025-09-11 10:29:30,1622021
2025-09-11 10:29:30,1622137
2025-09-11 10:29:30,1622101
2025-09-11 10:29:30,1622055
2025-09-11 10:29:30,1622040
2025-09-11 10:29:30,1622054
2025-09-11 10:29:30,1622057
2025-09-11 10:29:30,1622061
2025-09-11 10:29:30,1622092
2025-09-11 10:29:30,1622065
2025-09-11 10:29:30,1622132
2025-09-11 10:29:30,1622174
2025-09-11 10:29:30,1622198
2025-09-11 10:29:30,1622308
2025-09-11 10:29:30,1622290
2025-09-11 10:29:30,1622407
2025-09-11 10:29:30,1622418
2025-09-11 10:29:30,1622468
2025-09-11 10:29:30,1622647
2025-09-11 10:29:30,1622720
2025-09-11 10:29:30,1622792
2025-09-11 10:29:30,1622833
2025-09-11 10:29:30,1622966
2025-09-11 10:29:30,1623005
2025-09-11 10:29:30,1623174
2025-09-11 10:29:30,1623264
2025-09-11 10:29:30,1623468
2025-09-11 10:29:30,1623483
2025-09-11 10:29:30,1623714
2025-09-11 10:29:30,1623655
2025-09-11 10:29:30,1623889
2025-09-11 10:29:30,1623966
2025-09-11 10:29:30,1624126
2025-09-11 10:29:30,1624247
2025-09-11 10:29:30,1624352
2025-09-11 10:29:30,1624529
2025-09-11 10:29:30,1624574
2025-09-11 10:29:30,1624733
2025-09-11 10:29:30,1624817
2025-09-11 10:29:30,1625018
2025-09-11 10:29:30,1625042
2025-09-11 10:29:30,1625205
2025-09-11 10:29:30,1625378
2025-09-11 10:29:30,1625439
2025-09-11 10:29:30,1625591
2025-09-11 10:29:30,1625753
2025-09-11 10:29:30,1625884
2025-09-11 10:29:30,1626126
2025-09-11 10:29:30,1626101
2025-09-11 10:29:30,1626090
2025-09-11 10:29:30,1626056
2025-09-11 10:29:30,1625787
2025-09-11 10:29:30,1625326
2025-09-11 10:29:30,1624752
2025-09-11 10:29:31,1624368
2025-09-11 10:29:31,1623786
2025-09-11 10:29:31,1623273
2025-09-11 10:29:31,1622851
2025-09-11 10:29:31,1622472
2025-09-11 10:29:31,1622177
2025-09-11 10:29:31,1621855
2025-09-11 10:29:31,1621553
2025-09-11 10:29:31,1621401
2025-09-11 10:29:31,1621296
2025-09-11 10:29:31,1621138
2025-09-11 10:29:31,1620881
2025-09-11 10:29:31,1620863
2025-09-11 10:29:31,1620731
2025-09-11 10:29:31,1620602
2025-09-11 10:29:31,1620569
2025-09-11 10:29:31,1620458
2025-09-11 10:29:31,1620404
2025-09-11 10:29:31,1620396
2025-09-11 10:29:31,1620327
2025-09-11 10:29:31,1620295
2025-09-11 10:29:31,1620278
2025-09-11 10:29:31,1620258
2025-09-11 10:29:31,1620299
2025-09-11 10:29:31,1620366
2025-09-11 10:29:31,1620304
2025-09-11 10:29:31,1620409
2025-09-11 10:29:31,1620503
2025-09-11 10:29:31,1620563
2025-09-11 10:29:31,1620595
2025-09-11 10:29:31,1620656
2025-09-11 10:29:31,1620691
2025-09-11 10:29:31,1620692
2025-09-11 10:29:31,1620716
2025-09-11 10:29:31,1620811
2025-09-11 10:29:31,1620675
2025-09-11 10:29:31,1620768
2025-09-11 10:29:31,1620714
2025-09-11 10:29:31,1620641
2025-09-11 10:29:31,1620746
2025-09-11 10:29:31,1620781
2025-09-11 10:29:31,1620697
2025-09-11 10:29:31,1620783
2025-09-11 10:29:31,1620856
2025-09-11 10:29:31,1620893
2025-09-11 10:29:31,1620907
2025-09-11 10:29:31,1621042
2025-09-11 10:29:31,1621046
2025-09-11 10:29:31,1621108
2025-09-11 10:29:31,1621189
2025-09-11 10:29:31,1621231
2025-09-11 10:29:31,1621441
2025-09-11 10:29:31,1621551
2025-09-11 10:29:31,1621567
2025-09-11 10:29:31,1621647
2025-09-11 10:29:31,1621767
2025-09-11 10:29:31,1621948
2025-09-11 10:29:31,1621966
2025-09-11 10:29:31,1622123
2025-09-11 10:29:31,1622296
2025-09-11 10:29:31,1622407
2025-09-11 10:29:31,1622474
2025-09-11 10:29:31,1622539
2025-09-11 10:29:31,1622783
2025-09-11 10:29:31,1622842
2025-09-11 10:29:31,1623035
2025-09-11 10:29:31,1623086
2025-09-11 10:29:31,1623290
2025-09-11 10:29:31,1623369
2025-09-11 10:29:31,1623468
2025-09-11 10:29:31,1623554
2025-09-11 10:29:31,1623774
2025-09-11 10:29:31,1623889
2025-09-11 10:29:31,1623954
2025-09-11 10:29:31,1624103
2025-09-11 10:29:31,1624221
2025-09-11 10:29:31,1624434
2025-09-11 10:29:31,1624496
2025-09-11 10:29:31,1624723
2025-09-11 10:29:31,1624861
2025-09-11 10:29:31,1624916
2025-09-11 10:29:31,1624966
2025-09-11 10:29:31,1624932
2025-09-11 10:29:31,1624843
2025-09-11 10:29:31,1624528
2025-09-11 10:29:31,1624048
2025-09-11 10:29:31,1623557
2025-09-11 10:29:31,1623091
2025-09-11 10:29:31,1622539
2025-09-11 10:29:31,1622035
2025-09-11 10:29:31,1621652
2025-09-11 10:29:31,1621289
2025-09-11 10:29:31,1620932
2025-09-11 10:29:31,1620658
2025-09-11 10:29:31,1620475
2025-09-11 10:29:31,1620234
2025-09-11 10:29:31,1620157
2025-09-11 10:29:31,1620017
2025-09-11 10:29:31,1619806
2025-09-11 10:29:31,1619733
2025-09-11 10:29:32,1619656
2025-09-11 10:29:32,1619636
2025-09-11 10:29:32,1619566
2025-09-11 10:29:32,1619500
2025-09-11 10:29:32,1619460
2025-09-11 10:29:32,1619328
2025-09-11 10:29:32,1619329
2025-09-11 10:29:32,1619340
2025-09-11 10:29:32,1619259
2025-09-11 10:29:32,1619361
2025-09-11 10:29:32,1619267
2025-09-11 10:29:32,1619359
2025-09-11 10:29:32,1619357
2025-09-11 10:29:32,1619478
2025-09-11 10:29:32,1619591
2025-09-11 10:29:32,1619639
2025-09-11 10:29:32,1619750
2025-09-11 10:29:32,1619764
2025-09-11 10:29:32,1619742
2025-09-11 10:29:32,1619793
2025-09-11 10:29:32,1619765
2025-09-11 10:29:32,1619818
2025-09-11 10:29:32,1619845
2025-09-11 10:29:32,1619820
2025-09-11 10:29:32,1619837
2025-09-11 10:29:32,1619776
2025-09-11 10:29:32,1619775
2025-09-11 10:29:32,1619854
2025-09-11 10:29:32,1619880
2025-09-11 10:29:32,1619884
2025-09-11 10:29:32,1620010
2025-09-11 10:29:32,1620012
2025-09-11 10:29:32,1620005
2025-09-11 10:29:32,1620105
2025-09-11 10:29:32,1620158
2025-09-11 10:29:32,1620286
2025-09-11 10:29:32,1620409
2025-09-11 10:29:32,1620440
2025-09-11 10:29:32,1620526
2025-09-11 10:29:32,1620639
2025-09-11 10:29:32,1620719
2025-09-11 10:29:32,1620863
2025-09-11 10:29:32,1620971
2025-09-11 10:29:32,1621171
2025-09-11 10:29:32,1621178
2025-09-11 10:29:32,1621219
2025-09-11 10:29:32,1621445
2025-09-11 10:29:32,1621525
2025-09-11 10:29:32,1621673
2025-09-11 10:29:32,1621866
2025-09-11 10:29:32,1621936
2025-09-11 10:29:32,1622054
2025-09-11 10:29:32,1622194
2025-09-11 10:29:32,1622306
2025-09-11 10:29:32,1622371
2025-09-11 10:29:32,1622612
2025-09-11 10:29:32,1622708
2025-09-11 10:29:32,1622900
2025-09-11 10:29:32,1622971
2025-09-11 10:29:32,1623093
2025-09-11 10:29:32,1623072
2025-09-11 10:29:32,1623333
2025-09-11 10:29:32,1623400
2025-09-11 10:29:32,1623525
2025-09-11 10:29:32,1623838
2025-09-11 10:29:32,1623832
2025-09-11 10:29:32,1624003
2025-09-11 10:29:32,1624173
2025-09-11 10:29:32,1624332
2025-09-11 10:29:32,1624311
2025-09-11 10:29:32,1624376
2025-09-11 10:29:32,1624214
2025-09-11 10:29:32,1623941
2025-09-11 10:29:32,1623502
2025-09-11 10:29:32,1622922
2025-09-11 10:29:32,1622442
2025-09-11 10:29:32,1621910
2025-09-11 10:29:32,1621419
2025-09-11 10:29:32,1621009
2025-09-11 10:29:32,1620593
2025-09-11 10:29:32,1620352
2025-09-11 10:29:32,1620034
2025-09-11 10:29:32,1619789
2025-09-11 10:29:32,1619667
2025-09-11 10:29:32,1619465
2025-09-11 10:29:32,1619396
2025-09-11 10:29:32,1619211
2025-09-11 10:29:32,1619200
2025-09-11 10:29:32,1619171
2025-09-11 10:29:32,1619051
2025-09-11 10:29:32,1619028
2025-09-11 10:29:32,1618927
2025-09-11 10:29:32,1618955
2025-09-11 10:29:32,1618891
2025-09-11 10:29:32,1618836
2025-09-11 10:29:32,1618784
2025-09-11 10:29:32,1618818
2025-09-11 10:29:32,1618772
2025-09-11 10:29:32,1618867
2025-09-11 10:29:32,1618898
2025-09-11 10:29:33,1619037
2025-09-11 10:29:33,1619063
2025-09-11 10:29:33,1619092
2025-09-11 10:29:33,1619152
2025-09-11 10:29:33,1619191
2025-09-11 10:29:33,1619315
2025-09-11 10:29:33,1619377
2025-09-11 10:29:33,1619429
2025-09-11 10:29:33,1619409
2025-09-11 10:29:33,1619433
2025-09-11 10:29:33,1619399
2025-09-11 10:29:33,1619348
2025-09-11 10:29:33,1619349
2025-09-11 10:29:33,1619398
2025-09-11 10:29:33,1619355
2025-09-11 10:29:33,1619437
2025-09-11 10:29:33,1619490
2025-09-11 10:29:33,1619523
2025-09-11 10:29:33,1619480
2025-09-11 10:29:33,1619584
2025-09-11 10:29:33,1619590
2025-09-11 10:29:33,1619771
2025-09-11 10:29:33,1619744
2025-09-11 10:29:33,1619838
2025-09-11 10:29:33,1619947
2025-09-11 10:29:33,1620017
2025-09-11 10:29:33,1620183
2025-09-11 10:29:33,1620276
2025-09-11 10:29:33,1620313
2025-09-11 10:29:33,1620521
2025-09-11 10:29:33,1620616
2025-09-11 10:29:33,1620739
2025-09-11 10:29:33,1620739
2025-09-11 10:29:33,1620839
2025-09-11 10:29:33,1621036
2025-09-11 10:29:33,1621208
2025-09-11 10:29:33,1621255
2025-09-11 10:29:33,1621378
2025-09-11 10:29:33,1621551
2025-09-11 10:29:33,1621664
2025-09-11 10:29:33,1621742
2025-09-11 10:29:33,1621872
2025-09-11 10:29:33,1621966
2025-09-11 10:29:33,1622093
2025-09-11 10:29:33,1622319
2025-09-11 10:29:33,1622332
2025-09-11 10:29:33,1622547
2025-09-11 10:29:33,1622610
2025-09-11 10:29:33,1622735
2025-09-11 10:29:33,1622847
2025-09-11 10:29:33,1623001
2025-09-11 10:29:33,1623091
2025-09-11 10:29:33,1623317
2025-09-11 10:29:33,1623416
2025-09-11 10:29:33,1623530
2025-09-11 10:29:33,1623679
2025-09-11 10:29:33,1623718
2025-09-11 10:29:33,1623502
2025-09-11 10:29:33,1623203
2025-09-11 10:29:33,1622811
2025-09-11 10:29:33,1622310
2025-09-11 10:29:33,1621819
2025-09-11 10:29:33,1621324
2025-09-11 10:29:33,1620816
2025-09-11 10:29:33,1620465
2025-09-11 10:29:33,1620141
2025-09-11 10:29:33,1619873
2025-09-11 10:29:33,1619530
2025-09-11 10:29:33,1619403
2025-09-11 10:29:33,1619183
2025-09-11 10:29:33,1619130
2025-09-11 10:29:33,1618954
2025-09-11 10:29:33,1618907
2025-09-11 10:29:33,1618803
2025-09-11 10:29:33,1618777
2025-09-11 10:29:33,1618715
2025-09-11 10:29:33,1618672
2025-09-11 10:29:33,1618668
2025-09-11 10:29:33,1618671
2025-09-11 10:29:33,1618646
2025-09-11 10:29:33,1618654
2025-09-11 10:29:33,1618622
2025-09-11 10:29:33,1618632
2025-09-11 10:29:33,1618619
2025-09-11 10:29:33,1618725
2025-09-11 10:29:33,1618791
2025-09-11 10:29:33,1618881
2025-09-11 10:29:33,1618998
2025-09-11 10:29:33,1619058
2025-09-11 10:29:33,1619030
2025-09-11 10:29:33,1619189
2025-09-11 10:29:33,1619221
2025-09-11 10:29:33,1619235
2025-09-11 10:29:33,1619213
2025-09-11 10:29:33,1619296
2025-09-11 10:29:33,1619291
2025-09-11 10:29:33,1619239
2025-09-11 10:29:33,1619269
2025-09-11 10:29:33,1619239
2025-09-11 10:29:33,1619237
2025-09-11 10:29:33,1619267
2025-09-11 10:29:34,1619265
2025-09-11 10:29:34,1619296
2025-09-11 10:29:34,1619380
2025-09-11 10:29:34,1619436
2025-09-11 10:29:34,1619520
2025-09-11 10:29:34,1619526
2025-09-11 10:29:34,1619659
2025-09-11 10:29:34,1619669
2025-09-11 10:29:34,1619770
2025-09-11 10:29:34,1619842
2025-09-11 10:29:34,1620029
2025-09-11 10:29:34,1620065
2025-09-11 10:29:34,1620141
2025-09-11 10:29:34,1620285
2025-09-11 10:29:34,1620351
2025-09-11 10:29:34,1620522
2025-09-11 10:29:34,1620640
2025-09-11 10:29:34,1620710
2025-09-11 10:29:34,1620853
2025-09-11 10:29:34,1620947
2025-09-11 10:29:34,1621067
2025-09-11 10:29:34,1621224
2025-09-11 10:29:34,1621283
2025-09-11 10:29:34,1621461
2025-09-11 10:29:34,1621565
2025-09-11 10:29:34,1621688
2025-09-11 10:29:34,1621769
2025-09-11 10:29:34,1621895
2025-09-11 10:29:34,1622016
2025-09-11 10:29:34,1622200
2025-09-11 10:29:34,1622311
2025-09-11 10:29:34,1622419
2025-09-11 10:29:34,1622584
2025-09-11 10:29:34,1622600
2025-09-11 10:29:34,1622837
2025-09-11 10:29:34,1622979
2025-09-11 10:29:34,1623051
2025-09-11 10:29:34,1623124
2025-09-11 10:29:34,1623078
2025-09-11 10:29:34,1622958
2025-09-11 10:29:34,1622610
2025-09-11 10:29:34,1622120
2025-09-11 10:29:34,1621612
2025-09-11 10:29:34,1621096
2025-09-11 10:29:34,1620696
2025-09-11 10:29:34,1620211
2025-09-11 10:29:34,1619796
2025-09-11 10:29:34,1619454
2025-09-11 10:29:34,1619278
2025-09-11 10:29:34,1618990
2025-09-11 10:29:34,1618828
2025-09-11 10:29:34,1618715
2025-09-11 10:29:34,1618594
2025-09-11 10:29:34,1618599
2025-09-11 10:29:34,1618466
2025-09-11 10:29:34,1618420
2025-09-11 10:29:34,1618255
2025-09-11 10:29:34,1618316
2025-09-11 10:29:34,1618289
2025-09-11 10:29:34,1618290
2025-09-11 10:29:34,1618257
2025-09-11 10:29:34,1618229
2025-09-11 10:29:34,1618218
2025-09-11 10:29:34,1618237
2025-09-11 10:29:34,1618197
2025-09-11 10:29:34,1618200
2025-09-11 10:29:34,1618406
2025-09-11 10:29:34,1618405
2025-09-11 10:29:34,1618585
2025-09-11 10:29:34,1618575
2025-09-11 10:29:34,1618733
2025-09-11 10:29:34,1618712
2025-09-11 10:29:34,1618890
2025-09-11 10:29:34,1618755
2025-09-11 10:29:34,1618934
2025-09-11 10:29:34,1618835
2025-09-11 10:29:34,1618806
2025-09-11 10:29:34,1618915
2025-09-11 10:29:34,1618820
2025-09-11 10:29:34,1618932
2025-09-11 10:29:34,1618954
2025-09-11 10:29:34,1618905
2025-09-11 10:29:34,1618912
2025-09-11 10:29:34,1619006
2025-09-11 10:29:34,1619000
2025-09-11 10:29:34,1619028
2025-09-11 10:29:34,1619173
2025-09-11 10:29:34,1619226
2025-09-11 10:29:34,1619294
2025-09-11 10:29:34,1619361
2025-09-11 10:29:34,1619474
2025-09-11 10:29:34,1619574
2025-09-11 10:29:34,1619625
2025-09-11 10:29:34,1619679
2025-09-11 10:29:34,1619796
2025-09-11 10:29:34,1619990
2025-09-11 10:29:34,1620075
2025-09-11 10:29:34,1620175
2025-09-11 10:29:34,1620249
2025-09-11 10:29:35,1620357
2025-09-11 10:29:35,1620468
2025-09-11 10:29:35,1620676
2025-09-11 10:29:35,1620749
2025-09-11 10:29:35,1620777
2025-09-11 10:29:35,1620935
2025-09-11 10:29:35,1621122
2025-09-11 10:29:35,1621268
2025-09-11 10:29:35,1621427
2025-09-11 10:29:35,1621513
2025-09-11 10:29:35,1621562
2025-09-11 10:29:35,1621721
2025-09-11 10:29:35,1621808
2025-09-11 10:29:35,1621950
2025-09-11 10:29:35,1622088
2025-09-11 10:29:35,1622199
2025-09-11 10:29:35,1622364
2025-09-11 10:29:35,1622484
2025-09-11 10:29:35,1622571
2025-09-11 10:29:35,1622754
2025-09-11 10:29:35,1622852
2025-09-11 10:29:35,1623028
2025-09-11 10:29:35,1623149
2025-09-11 10:29:35,1623352
2025-09-11 10:29:35,1623393
2025-09-11 10:29:35,1623322
2025-09-11 10:29:35,1623018
2025-09-11 10:29:35,1622645
2025-09-11 10:29:35,1622130
2025-09-11 10:29:35,1621630
2025-09-11 10:29:35,1621186
2025-09-11 10:29:35,1620668
2025-09-11 10:29:35,1620139
2025-09-11 10:29:35,1619750
2025-09-11 10:29:35,1619471
2025-09-11 10:29:35,1619084
2025-09-11 10:29:35,1618933
2025-09-11 10:29:35,1618753
2025-09-11 10:29:35,1618555
2025-09-11 10:29:35,1618478
2025-09-11 10:29:35,1618282
2025-09-11 10:29:35,1618288
2025-09-11 10:29:35,1618129
2025-09-11 10:29:35,1618088
2025-09-11 10:29:35,1618069
2025-09-11 10:29:35,1618020
2025-09-11 10:29:35,1617897
2025-09-11 10:29:35,1617903
2025-09-11 10:29:35,1617882
2025-09-11 10:29:35,1617829
2025-09-11 10:29:35,1617757
2025-09-11 10:29:35,1617782
2025-09-11 10:29:35,1617839
2025-09-11 10:29:35,1617829
2025-09-11 10:29:35,1617818
2025-09-11 10:29:35,1617965
2025-09-11 10:29:35,1617988
2025-09-11 10:29:35,1618120
2025-09-11 10:29:35,1618157
2025-09-11 10:29:35,1618216
2025-09-11 10:29:35,1618287
2025-09-11 10:29:35,1618284
2025-09-11 10:29:35,1618308
2025-09-11 10:29:35,1618365
2025-09-11 10:29:35,1618309
2025-09-11 10:29:35,1618338
2025-09-11 10:29:35,1618307
2025-09-11 10:29:35,1618327
2025-09-11 10:29:35,1618374
2025-09-11 10:29:35,1618412
2025-09-11 10:29:35,1618387
2025-09-11 10:29:35,1618396
2025-09-11 10:29:35,1618526
2025-09-11 10:29:35,1618568
2025-09-11 10:29:35,1618538
2025-09-11 10:29:35,1618700
2025-09-11 10:29:35,1618721
2025-09-11 10:29:35,1618819
2025-09-11 10:29:35,1618874
2025-09-11 10:29:35,1618962
2025-09-11 10:29:35,1619004
2025-09-11 10:29:35,1619138
2025-09-11 10:29:35,1619241
2025-09-11 10:29:35,1619373
2025-09-11 10:29:35,1619416
2025-09-11 10:29:35,1619650
2025-09-11 10:29:35,1619693
2025-09-11 10:29:35,1619810
2025-09-11 10:29:35,1619859
2025-09-11 10:29:35,1619991
2025-09-11 10:29:35,1620120
2025-09-11 10:29:35,1620294
2025-09-11 10:29:35,1620389
2025-09-11 10:29:35,1620587
2025-09-11 10:29:35,1620637
2025-09-11 10:29:35,1620769
2025-09-11 10:29:35,1620964
2025-09-11 10:29:35,1621029
2025-09-11 10:29:35,1621207
2025-09-11 10:29:35,1621275
2025-09-11 10:29:36,1621394
2025-09-11 10:29:36,1621524
2025-09-11 10:29:36,1621657
2025-09-11 10:29:36,1621848
2025-09-11 10:29:36,1621934
2025-09-11 10:29:36,1622057
2025-09-11 10:29:36,1622136
2025-09-11 10:29:36,1622368
2025-09-11 10:29:36,1622432
2025-09-11 10:29:36,1622532
2025-09-11 10:29:36,1622671
2025-09-11 10:29:36,1622822
2025-09-11 10:29:36,1623003
2025-09-11 10:29:36,1623150
2025-09-11 10:29:36,1623131
2025-09-11 10:29:36,1623045
2025-09-11 10:29:36,1622796
2025-09-11 10:29:36,1622370
2025-09-11 10:29:36,1621910
2025-09-11 10:29:36,1621370
2025-09-11 10:29:36,1620798
2025-09-11 10:29:36,1620345
2025-09-11 10:29:36,1619954
2025-09-11 10:29:36,1619533
2025-09-11 10:29:36,1619207
2025-09-11 10:29:36,1618902
2025-09-11 10:29:36,1618621
2025-09-11 10:29:36,1618445
2025-09-11 10:29:36,1618413
2025-09-11 10:29:36,1618188
2025-09-11 10:29:36,1618175
2025-09-11 10:29:36,1618099
2025-09-11 10:29:36,1618007
2025-09-11 10:29:36,1617889
2025-09-11 10:29:36,1617887
2025-09-11 10:29:36,1617836
2025-09-11 10:29:36,1617825
2025-09-11 10:29:36,1617759
2025-09-11 10:29:36,1617760
2025-09-11 10:29:36,1617724
2025-09-11 10:29:36,1617711
2025-09-11 10:29:36,1617658
2025-09-11 10:29:36,1617633
2025-09-11 10:29:36,1617752
2025-09-11 10:29:36,1617787
2025-09-11 10:29:36,1617847
2025-09-11 10:29:36,1617961
2025-09-11 10:29:36,1618006
2025-09-11 10:29:36,1618090
2025-09-11 10:29:36,1618152
2025-09-11 10:29:36,1618203
2025-09-11 10:29:36,1618212
2025-09-11 10:29:36,1618265
2025-09-11 10:29:36,1618192
2025-09-11 10:29:36,1618250
2025-09-11 10:29:36,1618246
2025-09-11 10:29:36,1618281
2025-09-11 10:29:36,1618253
2025-09-11 10:29:36,1618219
2025-09-11 10:29:36,1618320
2025-09-11 10:29:36,1618298
2025-09-11 10:29:36,1618368
2025-09-11 10:29:36,1618499
2025-09-11 10:29:36,1618508
2025-09-11 10:29:36,1618447
2025-09-11 10:29:36,1618508
2025-09-11 10:29:36,1618673
2025-09-11 10:29:36,1618728
2025-09-11 10:29:36,1618841
2025-09-11 10:29:36,1618843
2025-09-11 10:29:36,1618970
2025-09-11 10:29:36,1619117
2025-09-11 10:29:36,1619107
2025-09-11 10:29:36,1619241
2025-09-11 10:29:36,1619469
2025-09-11 10:29:36,1619469
2025-09-11 10:29:36,1619568
2025-09-11 10:29:36,1619685
2025-09-11 10:29:36,1619857
2025-09-11 10:29:36,1619969
2025-09-11 10:29:36,1620058
2025-09-11 10:29:36,1620216
2025-09-11 10:29:36,1620410
2025-09-11 10:29:36,1620434
2025-09-11 10:29:36,1620539
2025-09-11 10:29:36,1620779
2025-09-11 10:29:36,1620747
2025-09-11 10:29:36,1620953
2025-09-11 10:29:36,1620994
2025-09-11 10:29:36,1621225
2025-09-11 10:29:36,1621306
2025-09-11 10:29:36,1621452
2025-09-11 10:29:36,1621657
2025-09-11 10:29:36,1621719
2025-09-11 10:29:36,1621853
2025-09-11 10:29:36,1621951
2025-09-11 10:29:36,1622043
2025-09-11 10:29:36,1622121
2025-09-11 10:29:36,1622214
2025-09-11 10:29:36,1622436
2025-09-11 10:29:37,1622585
2025-09-11 10:29:37,1622707
2025-09-11 10:29:37,1622943
2025-09-11 10:29:37,1622946
2025-09-11 10:29:37,1622975
2025-09-11 10:29:37,1622902
2025-09-11 10:29:37,1622583
2025-09-11 10:29:37,1622226
2025-09-11 10:29:37,1621691
2025-09-11 10:29:37,1621111
2025-09-11 10:29:37,1620668
2025-09-11 10:29:37,1620212
2025-09-11 10:29:37,1619750
2025-09-11 10:29:37,1619434
2025-09-11 10:29:37,1619060
2025-09-11 10:29:37,1618812
2025-09-11 10:29:37,1618648
2025-09-11 10:29:37,1618428
2025-09-11 10:29:37,1618357
2025-09-11 10:29:37,1618230
2025-09-11 10:29:37,1618115
2025-09-11 10:29:37,1618079
2025-09-11 10:29:37,1617975
2025-09-11 10:29:37,1618007
2025-09-11 10:29:37,1617904
2025-09-11 10:29:37,1617904
2025-09-11 10:29:37,1617953
2025-09-11 10:29:37,1617873
2025-09-11 10:29:37,1617794
2025-09-11 10:29:37,1617753
2025-09-11 10:29:37,1617776
2025-09-11 10:29:37,1617727
2025-09-11 10:29:37,1617805
2025-09-11 10:29:37,1617932
2025-09-11 10:29:37,1617934
2025-09-11 10:29:37,1618090
2025-09-11 10:29:37,1618178
2025-09-11 10:29:37,1618162
2025-09-11 10:29:37,1618301
2025-09-11 10:29:37,1618402
2025-09-11 10:29:37,1618408
2025-09-11 10:29:37,1618392
2025-09-11 10:29:37,1618413
2025-09-11 10:29:37,1618390
2025-09-11 10:29:37,1618432
2025-09-11 10:29:37,1618329
2025-09-11 10:29:37,1618328
2025-09-11 10:29:37,1618403
2025-09-11 10:29:37,1618329
2025-09-11 10:29:37,1618483
2025-09-11 10:29:37,1618462
2025-09-11 10:29:37,1618486
2025-09-11 10:29:37,1618568
2025-09-11 10:29:37,1618598
2025-09-11 10:29:37,1618627
2025-09-11 10:29:37,1618734
2025-09-11 10:29:37,1618926
2025-09-11 10:29:37,1618783
2025-09-11 10:29:37,1618914
2025-09-11 10:29:37,1619022
2025-09-11 10:29:37,1619243
2025-09-11 10:29:37,1619279
2025-09-11 10:29:37,1619354
2025-09-11 10:29:37,1619515
2025-09-11 10:29:37,1619624
2025-09-11 10:29:37,1619638
2025-09-11 10:29:37,1619807
2025-09-11 10:29:37,1619973
2025-09-11 10:29:37,1620051
2025-09-11 10:29:37,1620172
2025-09-11 10:29:37,1620280
2025-09-11 10:29:37,1620393
2025-09-11 10:29:37,1620546
2025-09-11 10:29:37,1620644
2025-09-11 10:29:37,1620715
2025-09-11 10:29:37,1620846
2025-09-11 10:29:37,1620965
2025-09-11 10:29:37,1621079
2025-09-11 10:29:37,1621210
2025-09-11 10:29:37,1621397
2025-09-11 10:29:37,1621427
2025-09-11 10:29:37,1621535
2025-09-11 10:29:37,1621668
2025-09-11 10:29:37,1621809
2025-09-11 10:29:37,1621963
2025-09-11 10:29:37,1622104
2025-09-11 10:29:37,1622305
2025-09-11 10:29:37,1622382
2025-09-11 10:29:37,1622509
2025-09-11 10:29:37,1622598
2025-09-11 10:29:37,1622590
2025-09-11 10:29:37,1622451
2025-09-11 10:29:37,1622119
2025-09-11 10:29:37,1621647
2025-09-11 10:29:37,1621249
2025-09-11 10:29:37,1620694
2025-09-11 10:29:37,1620095
2025-09-11 10:29:37,1619806
2025-09-11 10:29:37,1619377
2025-09-11 10:29:37,1619090
2025-09-11 10:29:38,1618824
2025-09-11 10:29:38,1618573
2025-09-11 10:29:38,1618460
2025-09-11 10:29:38,1618357
2025-09-11 10:29:38,1618235
2025-09-11 10:29:38,1618111
2025-09-11 10:29:38,1618141
2025-09-11 10:29:38,1618022
2025-09-11 10:29:38,1618024
2025-09-11 10:29:38,1618040
2025-09-11 10:29:38,1618038
2025-09-11 10:29:38,1617961
2025-09-11 10:29:38,1618002
2025-09-11 10:29:38,1617938
2025-09-11 10:29:38,1617970
2025-09-11 10:29:38,1617979
2025-09-11 10:29:38,1618034
2025-09-11 10:29:38,1618115
2025-09-11 10:29:38,1618092
2025-09-11 10:29:38,1618261
2025-09-11 10:29:38,1618312
2025-09-11 10:29:38,1618394
2025-09-11 10:29:38,1618419
2025-09-11 10:29:38,1618578
2025-09-11 10:29:38,1618561
2025-09-11 10:29:38,1618598
2025-09-11 10:29:38,1618589
2025-09-11 10:29:38,1618652
2025-09-11 10:29:38,1618635
2025-09-11 10:29:38,1618659
2025-09-11 10:29:38,1618676
2025-09-11 10:29:38,1618597
2025-09-11 10:29:38,1618613
2025-09-11 10:29:38,1618653
2025-09-11 10:29:38,1618638
2025-09-11 10:29:38,1618709
2025-09-11 10:29:38,1618677
2025-09-11 10:29:38,1618751
2025-09-11 10:29:38,1618887
2025-09-11 10:29:38,1618871
2025-09-11 10:29:38,1618998
2025-09-11 10:29:38,1619055
2025-09-11 10:29:38,1619151
2025-09-11 10:29:38,1619223
2025-09-11 10:29:38,1619322
2025-09-11 10:29:38,1619439
2025-09-11 10:29:38,1619603
2025-09-11 10:29:38,1619710
2025-09-11 10:29:38,1619696
2025-09-11 10:29:38,1619766
2025-09-11 10:29:38,1619948
2025-09-11 10:29:38,1620055
2025-09-11 10:29:38,1620162
2025-09-11 10:29:38,1620325
2025-09-11 10:29:38,1620434
2025-09-11 10:29:38,1620539
2025-09-11 10:29:38,1620732
2025-09-11 10:29:38,1620764
2025-09-11 10:29:38,1620886
2025-09-11 10:29:38,1620994
2025-09-11 10:29:38,1621191
2025-09-11 10:29:38,1621220
2025-09-11 10:29:38,1621329
2025-09-11 10:29:38,1621550
2025-09-11 10:29:38,1621628
2025-09-11 10:29:38,1621763
2025-09-11 10:29:38,1621851
2025-09-11 10:29:38,1621976
2025-09-11 10:29:38,1622087
2025-09-11 10:29:38,1622278
2025-09-11 10:29:38,1622405
2025-09-11 10:29:38,1622541
2025-09-11 10:29:38,1622623
2025-09-11 10:29:38,1622772
2025-09-11 10:29:38,1622856
2025-09-11 10:29:38,1622859
2025-09-11 10:29:38,1622736
2025-09-11 10:29:38,1622352
2025-09-11 10:29:38,1621867
2025-09-11 10:29:38,1621355
2025-09-11 10:29:38,1620814
2025-09-11 10:29:38,1620336
2025-09-11 10:29:38,1619875
2025-09-11 10:29:38,1619389
2025-09-11 10:29:38,1619136
2025-09-11 10:29:38,1618885
2025-09-11 10:29:38,1618635
2025-09-11 10:29:38,1618381
2025-09-11 10:29:38,1618258
2025-09-11 10:29:38,1618078
2025-09-11 10:29:38,1618023
2025-09-11 10:29:38,1617828
2025-09-11 10:29:38,1617869
2025-09-11 10:29:38,1617747
2025-09-11 10:29:38,1617702
2025-09-11 10:29:38,1617580
2025-09-11 10:29:38,1617653
2025-09-11 10:29:38,1617577
2025-09-11 10:29:38,1617546
2025-09-11 10:29:38,1617492
2025-09-11 10:29:39,1617361
2025-09-11 10:29:39,1617535
2025-09-11 10:29:39,1617467
2025-09-11 10:29:39,1617434
2025-09-11 10:29:39,1617505
2025-09-11 10:29:39,1617572
2025-09-11 10:29:39,1617655
2025-09-11 10:29:39,1617763
2025-09-11 10:29:39,1617769
2025-09-11 10:29:39,1617843
2025-09-11 10:29:39,1617936
2025-09-11 10:29:39,1618042
2025-09-11 10:29:39,1618004
2025-09-11 10:29:39,1618009
2025-09-11 10:29:39,1617956
2025-09-11 10:29:39,1617984
2025-09-11 10:29:39,1618019
2025-09-11 10:29:39,1618003
2025-09-11 10:29:39,1617984
2025-09-11 10:29:39,1617973
2025-09-11 10:29:39,1618127
2025-09-11 10:29:39,1618122
2025-09-11 10:29:39,1618078
2025-09-11 10:29:39,1618137
2025-09-11 10:29:39,1618202
2025-09-11 10:29:39,1618223
2025-09-11 10:29:39,1618274
2025-09-11 10:29:39,1618417
2025-09-11 10:29:39,1618402
2025-09-11 10:29:39,1618656
2025-09-11 10:29:39,1618625
2025-09-11 10:29:39,1618782
2025-09-11 10:29:39,1618852
2025-09-11 10:29:39,1618906
2025-09-11 10:29:39,1619055
2025-09-11 10:29:39,1619241
2025-09-11 10:29:39,1619210
2025-09-11 10:29:39,1619382
2025-09-11 10:29:39,1619453
2025-09-11 10:29:39,1619590
2025-09-11 10:29:39,1619759
2025-09-11 10:29:39,1619761
2025-09-11 10:29:39,1619975
2025-09-11 10:29:39,1620112
2025-09-11 10:29:39,1620181
2025-09-11 10:29:39,1620316
2025-09-11 10:29:39,1620508
2025-09-11 10:29:39,1620572
2025-09-11 10:29:39,1620646
2025-09-11 10:29:39,1620757
2025-09-11 10:29:39,1620937
2025-09-11 10:29:39,1620994
2025-09-11 10:29:39,1621163
2025-09-11 10:29:39,1621317
2025-09-11 10:29:39,1621303
2025-09-11 10:29:39,1621590
2025-09-11 10:29:39,1621693
2025-09-11 10:29:39,1621800
2025-09-11 10:29:39,1621948
2025-09-11 10:29:39,1621956
2025-09-11 10:29:39,1622121
2025-09-11 10:29:39,1622019
2025-09-11 10:29:39,1621848
2025-09-11 10:29:39,1621419
2025-09-11 10:29:39,1620976
2025-09-11 10:29:39,1620375
2025-09-11 10:29:39,1619914
2025-09-11 10:29:39,1619439
2025-09-11 10:29:29,1619054
2025-09-11 10:29:39,1618626
2025-09-11 10:29:39,1618384
2025-09-11 10:29:39,1618016
2025-09-11 10:29:39,1617812
2025-09-11 10:29:39,1617722
2025-09-11 10:29:39,1617555
2025-09-11 10:29:39,1617368
2025-09-11 10:29:39,1617341
2025-09-11 10:29:39,1617185
2025-09-11 10:29:39,1617162
2025-09-11 10:29:39,1617055
2025-09-11 10:29:39,1617060
2025-09-11 10:29:39,1616987
2025-09-11 10:29:39,1616930
2025-09-11 10:29:39,1616936
2025-09-11 10:29:39,1616822
2025-09-11 10:29:39,1616804
2025-09-11 10:29:39,1616819
2025-09-11 10:29:39,1616879
2025-09-11 10:29:39,1616816
2025-09-11 10:29:39,1616844
2025-09-11 10:29:39,1616925
2025-09-11 10:29:39,1616931
2025-09-11 10:29:39,1617051
2025-09-11 10:29:39,1617067
2025-09-11 10:29:39,1617222
2025-09-11 10:29:39,1617264
2025-09-11 10:29:39,1617296
2025-09-11 10:29:39,1617400
2025-09-11 10:29:39,1617314
2025-09-11 10:29:39,1617300
2025-09-11 10:29:40,1617436
2025-09-11 10:29:40,1617386
2025-09-11 10:29:40,1617351
2025-09-11 10:29:40,1617406
2025-09-11 10:29:40,1617287
2025-09-11 10:29:40,1617438
2025-09-11 10:29:40,1617433
2025-09-11 10:29:40,1617422
2025-09-11 10:29:40,1617484
2025-09-11 10:29:40,1617545
2025-09-11 10:29:40,1617627
2025-09-11 10:29:40,1617613
2025-09-11 10:29:40,1617666
2025-09-11 10:29:40,1617819
2025-09-11 10:29:40,1617871
2025-09-11 10:29:40,1618020
2025-09-11 10:29:40,1618079
2025-09-11 10:29:40,1618226
2025-09-11 10:29:40,1618287
2025-09-11 10:29:40,1618418
2025-09-11 10:29:40,1618486
2025-09-11 10:29:40,1618653
2025-09-11 10:29:40,1618671
2025-09-11 10:29:40,1618812
2025-09-11 10:29:40,1618923
2025-09-11 10:29:40,1619060
2025-09-11 10:29:40,1619168
2025-09-11 10:29:40,1619306
2025-09-11 10:29:40,1619411
2025-09-11 10:29:40,1619515
2025-09-11 10:29:40,1619629
2025-09-11 10:29:40,1619785
2025-09-11 10:29:40,1619867
2025-09-11 10:29:40,1619992
2025-09-11 10:29:40,1620151
2025-09-11 10:29:40,1620254
2025-09-11 10:29:40,1620333
2025-09-11 10:29:40,1620556
2025-09-11 10:29:40,1620585
2025-09-11 10:29:40,1620769
2025-09-11 10:29:40,1620906
2025-09-11 10:29:40,1621106
2025-09-11 10:29:40,1621266
2025-09-11 10:29:40,1621308
2025-09-11 10:29:40,1621392
2025-09-11 10:29:40,1621378
2025-09-11 10:29:40,1621310
2025-09-11 10:29:40,1621023
2025-09-11 10:29:40,1620544
2025-09-11 10:29:40,1620056
2025-09-11 10:29:40,1619551
2025-09-11 10:29:40,1619032
2025-09-11 10:29:40,1618606
2025-09-11 10:29:40,1618188
2025-09-11 10:29:40,1617869
2025-09-11 10:29:40,1617634
2025-09-11 10:29:40,1617354
2025-09-11 10:29:40,1617187
2025-09-11 10:29:40,1617019
2025-09-11 10:29:40,1616940
2025-09-11 10:29:40,1616834
2025-09-11 10:29:40,1616748
2025-09-11 10:29:40,1616621
2025-09-11 10:29:40,1616654
2025-09-11 10:29:40,1616491
2025-09-11 10:29:40,1616518
2025-09-11 10:29:40,1616434
2025-09-11 10:29:40,1616403
2025-09-11 10:29:40,1616458
2025-09-11 10:29:40,1616316
2025-09-11 10:29:40,1616379
2025-09-11 10:29:40,1616328
2025-09-11 10:29:40,1616363
2025-09-11 10:29:40,1616364
2025-09-11 10:29:40,1616429
2025-09-11 10:29:40,1616509
2025-09-11 10:29:40,1616556
2025-09-11 10:29:40,1616713
2025-09-11 10:29:40,1616710
2025-09-11 10:29:40,1616726
2025-09-11 10:29:40,1616862
2025-09-11 10:29:40,1616871
2025-09-11 10:29:40,1616976
2025-09-11 10:29:40,1616912
2025-09-11 10:29:40,1616984
2025-09-11 10:29:40,1616884
2025-09-11 10:29:40,1616980
2025-09-11 10:29:40,1616868
2025-09-11 10:29:40,1616918
2025-09-11 10:29:40,1616986
2025-09-11 10:29:40,1616999
2025-09-11 10:29:40,1617043
2025-09-11 10:29:40,1617010
2025-09-11 10:29:40,1617103
2025-09-11 10:29:40,1617198
2025-09-11 10:29:40,1617239
2025-09-11 10:29:40,1617301
2025-09-11 10:29:40,1617436
2025-09-11 10:29:40,1617471
2025-09-11 10:29:40,1617488
2025-09-11 10:29:41,1617675
2025-09-11 10:29:41,1617822
2025-09-11 10:29:41,1617786
2025-09-11 10:29:41,1617948
2025-09-11 10:29:41,1618047
2025-09-11 10:29:41,1618180
2025-09-11 10:29:41,1618245
2025-09-11 10:29:41,1618321
2025-09-11 10:29:41,1618533
2025-09-11 10:29:41,1618601
2025-09-11 10:29:41,1618714
2025-09-11 10:29:41,1618838
2025-09-11 10:29:41,1618994
2025-09-11 10:29:41,1619067
2025-09-11 10:29:41,1619160
2025-09-11 10:29:41,1619324
2025-09-11 10:29:41,1619528
2025-09-11 10:29:41,1619570
2025-09-11 10:29:41,1619727
2025-09-11 10:29:41,1619884
2025-09-11 10:29:41,1620024
2025-09-11 10:29:41,1620174
2025-09-11 10:29:41,1620204
2025-09-11 10:29:41,1620326
2025-09-11 10:29:41,1620468
2025-09-11 10:29:41,1620578
2025-09-11 10:29:41,1620743
2025-09-11 10:29:41,1620769
2025-09-11 10:29:41,1621059
2025-09-11 10:29:41,1621081
2025-09-11 10:29:41,1621223
2025-09-11 10:29:41,1621118
2025-09-11 10:29:41,1621025
2025-09-11 10:29:41,1620645
2025-09-11 10:29:41,1620179
2025-09-11 10:29:41,1619683
2025-09-11 10:29:41,1619164
2025-09-11 10:29:41,1618714
2025-09-11 10:29:41,1618280
2025-09-11 10:29:41,1617933
2025-09-11 10:29:41,1617567
2025-09-11 10:29:41,1617303
2025-09-11 10:29:41,1617165
2025-09-11 10:29:41,1616986
2025-09-11 10:29:41,1616858
2025-09-11 10:29:41,1616680
2025-09-11 10:29:41,1616689
2025-09-11 10:29:41,1616560
2025-09-11 10:29:41,1616477
2025-09-11 10:29:41,1616492
2025-09-11 10:29:41,1616413
2025-09-11 10:29:41,1616433
2025-09-11 10:29:41,1616309
2025-09-11 10:29:41,1616329
2025-09-11 10:29:41,1616262
2025-09-11 10:29:41,1616243
2025-09-11 10:29:41,1616230
2025-09-11 10:29:41,1616281
2025-09-11 10:29:41,1616175
2025-09-11 10:29:41,1616218
2025-09-11 10:29:41,1616286
2025-09-11 10:29:41,1616496
2025-09-11 10:29:41,1616544
2025-09-11 10:29:41,1616648
2025-09-11 10:29:41,1616600
2025-09-11 10:29:41,1616660
2025-09-11 10:29:41,1616848
2025-09-11 10:29:41,1616819
2025-09-11 10:29:41,1616858
2025-09-11 10:29:41,1616840
2025-09-11 10:29:41,1616830
2025-09-11 10:29:41,1616899
2025-09-11 10:29:41,1616903
2025-09-11 10:29:41,1616877
2025-09-11 10:29:41,1616843
2025-09-11 10:29:41,1616945
2025-09-11 10:29:41,1616907
2025-09-11 10:29:41,1617002
2025-09-11 10:29:41,1617043
2025-09-11 10:29:41,1617086
2025-09-11 10:29:41,1617162
2025-09-11 10:29:41,1617222
2025-09-11 10:29:41,1617229
2025-09-11 10:29:41,1617369
2025-09-11 10:29:41,1617417
2025-09-11 10:29:41,1617537
2025-09-11 10:29:41,1617664
2025-09-11 10:29:41,1617712
2025-09-11 10:29:41,1617911
2025-09-11 10:29:41,1617941
2025-09-11 10:29:41,1618100
2025-09-11 10:29:41,1618181
2025-09-11 10:29:41,1618275
2025-09-11 10:29:41,1618493
2025-09-11 10:29:41,1618539
2025-09-11 10:29:41,1618658
2025-09-11 10:29:41,1618757
2025-09-11 10:29:41,1618974
2025-09-11 10:29:41,1619039
2025-09-11 10:29:41,1619190
2025-09-11 10:29:41,1619240
2025-09-11 10:29:42,1619379
2025-09-11 10:29:42,1619493
2025-09-11 10:29:42,1619633
2025-09-11 10:29:42,1619734
2025-09-11 10:29:42,1619883
2025-09-11 10:29:42,1619980
2025-09-11 10:29:42,1620191
2025-09-11 10:29:42,1620162
2025-09-11 10:29:42,1620363
2025-09-11 10:29:42,1620533
2025-09-11 10:29:42,1620649
2025-09-11 10:29:42,1620778
2025-09-11 10:29:42,1620978
2025-09-11 10:29:42,1620904
2025-09-11 10:29:42,1620881
2025-09-11 10:29:42,1620622
2025-09-11 10:29:42,1620235
2025-09-11 10:29:42,1619777
2025-09-11 10:29:42,1619308
2025-09-11 10:29:42,1618819
2025-09-11 10:29:42,1618318
2025-09-11 10:29:42,1618040
2025-09-11 10:29:42,1617655
2025-09-11 10:29:42,1617404
2025-09-11 10:29:42,1617301
2025-09-11 10:29:42,1617060
2025-09-11 10:29:42,1617007
2025-09-11 10:29:42,1616861
2025-09-11 10:29:42,1616778
2025-09-11 10:29:42,1616734
2025-09-11 10:29:42,1616713
2025-09-11 10:29:42,1616657
2025-09-11 10:29:42,1616637
2025-09-11 10:29:42,1616688
2025-09-11 10:29:42,1616623
2025-09-11 10:29:42,1616587
2025-09-11 10:29:42,1616596
2025-09-11 10:29:42,1616656
2025-09-11 10:29:42,1616648
2025-09-11 10:29:42,1616633
2025-09-11 10:29:42,1616675
2025-09-11 10:29:42,1616825
2025-09-11 10:29:42,1616986
2025-09-11 10:29:42,1617070
2025-09-11 10:29:42,1617102
2025-09-11 10:29:42,1617187
2025-09-11 10:29:42,1617379
2025-09-11 10:29:42,1617376
2025-09-11 10:29:42,1617416
2025-09-11 10:29:42,1617390
2025-09-11 10:29:42,1617416
2025-09-11 10:29:42,1617428
2025-09-11 10:29:42,1617471
2025-09-11 10:29:42,1617415
2025-09-11 10:29:42,1617523
2025-09-11 10:29:42,1617450
2025-09-11 10:29:42,1617509
2025-09-11 10:29:42,1617445
2025-09-11 10:29:42,1617556
2025-09-11 10:29:42,1617523
2025-09-11 10:29:42,1617692
2025-09-11 10:29:42,1617695
2025-09-11 10:29:42,1617758
2025-09-11 10:29:42,1617743
2025-09-11 10:29:42,1617878
2025-09-11 10:29:42,1618007
2025-09-11 10:29:42,1618158
2025-09-11 10:29:42,1618184
2025-09-11 10:29:42,1618354
2025-09-11 10:29:42,1618386
2025-09-11 10:29:42,1618473
2025-09-11 10:29:42,1618548
2025-09-11 10:29:42,1618733
2025-09-11 10:29:42,1618859
2025-09-11 10:29:42,1618905
2025-09-11 10:29:42,1619059
2025-09-11 10:29:42,1619233
2025-09-11 10:29:42,1619267
2025-09-11 10:29:42,1619433
2025-09-11 10:29:42,1619503
2025-09-11 10:29:42,1619659
2025-09-11 10:29:42,1619730
2025-09-11 10:29:42,1619898
2025-09-11 10:29:42,1620005
2025-09-11 10:29:42,1620196
2025-09-11 10:29:42,1620295
2025-09-11 10:29:42,1620331
2025-09-11 10:29:42,1620484
2025-09-11 10:29:42,1620650
2025-09-11 10:29:42,1620876
2025-09-11 10:29:42,1620913
2025-09-11 10:29:42,1621065
2025-09-11 10:29:42,1621134
2025-09-11 10:29:42,1621168
2025-09-11 10:29:42,1621031
2025-09-11 10:29:42,1620756
2025-09-11 10:29:42,1620383
2025-09-11 10:29:42,1619798
2025-09-11 10:29:42,1619371
2025-09-11 10:29:42,1618889
2025-09-11 10:29:43,1618444
2025-09-11 10:29:43,1618118
2025-09-11 10:29:43,1617802
2025-09-11 10:29:43,1617551
2025-09-11 10:29:43,1617397
2025-09-11 10:29:43,1617193
2025-09-11 10:29:43,1617036
2025-09-11 10:29:43,1616907
2025-09-11 10:29:43,1616939
2025-09-11 10:29:43,1616870
2025-09-11 10:29:43,1616839
2025-09-11 10:29:43,1616824
2025-09-11 10:29:43,1616763
2025-09-11 10:29:43,1616776
2025-09-11 10:29:43,1616681
2025-09-11 10:29:43,1616713
2025-09-11 10:29:43,1616695
2025-09-11 10:29:43,1616717
2025-09-11 10:29:43,1616682
2025-09-11 10:29:43,1616738
2025-09-11 10:29:43,1616796
2025-09-11 10:29:43,1616843
2025-09-11 10:29:43,1616921
2025-09-11 10:29:43,1617094
2025-09-11 10:29:43,1617188
2025-09-11 10:29:43,1617196
2025-09-11 10:29:43,1617376
2025-09-11 10:29:43,1617316
2025-09-11 10:29:43,1617338
2025-09-11 10:29:43,1617422
2025-09-11 10:29:43,1617451
2025-09-11 10:29:43,1617396
2025-09-11 10:29:43,1617368
2025-09-11 10:29:43,1617303
2025-09-11 10:29:43,1617361
2025-09-11 10:29:43,1617405
2025-09-11 10:29:43,1617399
2025-09-11 10:29:43,1617463
2025-09-11 10:29:43,1617460
2025-09-11 10:29:43,1617475
2025-09-11 10:29:43,1617581
2025-09-11 10:29:43,1617691
2025-09-11 10:29:43,1617743
2025-09-11 10:29:43,1617834
2025-09-11 10:29:43,1617860
2025-09-11 10:29:43,1617948
2025-09-11 10:29:43,1618005
2025-09-11 10:29:43,1618053
2025-09-11 10:29:43,1618181
2025-09-11 10:29:43,1618401
2025-09-11 10:29:43,1618374
2025-09-11 10:29:43,1618585
2025-09-11 10:29:43,1618714
2025-09-11 10:29:43,1618771
2025-09-11 10:29:43,1618930
2025-09-11 10:29:43,1619023
2025-09-11 10:29:43,1619138
2025-09-11 10:29:43,1619200
2025-09-11 10:29:43,1619365
2025-09-11 10:29:43,1619330
2025-09-11 10:29:43,1619557
2025-09-11 10:29:43,1619692
2025-09-11 10:29:43,1619870
2025-09-11 10:29:43,1619879
2025-09-11 10:29:43,1620023
2025-09-11 10:29:43,1620122
2025-09-11 10:29:43,1620306
2025-09-11 10:29:43,1620437
2025-09-11 10:29:43,1620511
2025-09-11 10:29:43,1620691
2025-09-11 10:29:43,1620736
2025-09-11 10:29:43,1620732
2025-09-11 10:29:43,1620592
2025-09-11 10:29:43,1620291
2025-09-11 10:29:43,1619897
2025-09-11 10:29:43,1619383
2025-09-11 10:29:43,1618920
2025-09-11 10:29:43,1618479
2025-09-11 10:29:43,1618023
2025-09-11 10:29:43,1617623
2025-09-11 10:29:43,1617361
2025-09-11 10:29:43,1617048
2025-09-11 10:29:43,1616876
2025-09-11 10:29:43,1616650
2025-09-11 10:29:43,1616490
2025-09-11 10:29:43,1616392
2025-09-11 10:29:43,1616290
2025-09-11 10:29:43,1616260
2025-09-11 10:29:43,1616206
2025-09-11 10:29:43,1616099
2025-09-11 10:29:43,1615986
2025-09-11 10:29:43,1616027
2025-09-11 10:29:43,1615986
2025-09-11 10:29:43,1615952
2025-09-11 10:29:43,1615909
2025-09-11 10:29:43,1615793
2025-09-11 10:29:43,1615842
2025-09-11 10:29:43,1615776
2025-09-11 10:29:43,1615807
2025-09-11 10:29:44,1615816
2025-09-11 10:29:44,1615864
2025-09-11 10:29:44,1615938
2025-09-11 10:29:44,1616072
2025-09-11 10:29:44,1616138
2025-09-11 10:29:44,1616225
2025-09-11 10:29:44,1616222
2025-09-11 10:29:44,1616264
2025-09-11 10:29:44,1616402
2025-09-11 10:29:44,1616411
2025-09-11 10:29:44,1616361
2025-09-11 10:29:44,1616441
2025-09-11 10:29:44,1616350
2025-09-11 10:29:44,1616427
2025-09-11 10:29:44,1616334
2025-09-11 10:29:44,1616392
2025-09-11 10:29:44,1616375
2025-09-11 10:29:44,1616462
2025-09-11 10:29:44,1616528
2025-09-11 10:29:44,1616499
2025-09-11 10:29:44,1616546
2025-09-11 10:29:44,1616671
2025-09-11 10:29:44,1616739
2025-09-11 10:29:44,1616772
2025-09-11 10:29:44,1616912
2025-09-11 10:29:44,1616922
2025-09-11 10:29:44,1617097
2025-09-11 10:29:44,1617176
2025-09-11 10:29:44,1617291
2025-09-11 10:29:44,1617364
2025-09-11 10:29:44,1617418
2025-09-11 10:29:44,1617485
2025-09-11 10:29:44,1617617
2025-09-11 10:29:44,1617740
2025-09-11 10:29:44,1617895
2025-09-11 10:29:44,1617924
2025-09-11 10:29:44,1618136
2025-09-11 10:29:44,1618193
2025-09-11 10:29:44,1618333
2025-09-11 10:29:44,1618453
2025-09-11 10:29:44,1618572
2025-09-11 10:29:44,1618643
2025-09-11 10:29:44,1618801
2025-09-11 10:29:44,1618950
2025-09-11 10:29:44,1619066
2025-09-11 10:29:44,1619146
2025-09-11 10:29:44,1619284
2025-09-11 10:29:44,1619387
2025-09-11 10:29:44,1619569
2025-09-11 10:29:44,1619674
2025-09-11 10:29:44,1619779
2025-09-11 10:29:44,1619953
2025-09-11 10:29:44,1620080
2025-09-11 10:29:44,1620137
2025-09-11 10:29:44,1620275
2025-09-11 10:29:44,1620393
2025-09-11 10:29:44,1620394
2025-09-11 10:29:44,1620331
2025-09-11 10:29:44,1620125
2025-09-11 10:29:44,1619664
2025-09-11 10:29:44,1619257
2025-09-11 10:29:44,1618705
2025-09-11 10:29:44,1618147
2025-09-11 10:29:44,1617639
2025-09-11 10:29:44,1617335
2025-09-11 10:29:44,1616890
2025-09-11 10:29:44,1616572
2025-09-11 10:29:44,1616379
2025-09-11 10:29:44,1616185
2025-09-11 10:29:44,1616042
2025-09-11 10:29:44,1615787
2025-09-11 10:29:44,1615772
2025-09-11 10:29:44,1615668
2025-09-11 10:29:44,1615516
2025-09-11 10:29:44,1615525
2025-09-11 10:29:44,1615380
2025-09-11 10:29:44,1615334
2025-09-11 10:29:44,1615276
2025-09-11 10:29:44,1615240
2025-09-11 10:29:44,1615190
2025-09-11 10:29:44,1615054
2025-09-11 10:29:44,1615072
2025-09-11 10:29:44,1615056
2025-09-11 10:29:44,1615049
2025-09-11 10:29:44,1615052
2025-09-11 10:29:44,1614970
2025-09-11 10:29:44,1615040
2025-09-11 10:29:44,1615165
2025-09-11 10:29:44,1615254
2025-09-11 10:29:44,1615311
2025-09-11 10:29:44,1615403
2025-09-11 10:29:44,1615408
2025-09-11 10:29:44,1615508
2025-09-11 10:29:44,1615465
2025-09-11 10:29:44,1615508
2025-09-11 10:29:44,1615538
2025-09-11 10:29:44,1615552
2025-09-11 10:29:44,1615606
2025-09-11 10:29:44,1615567
2025-09-11 10:29:44,1615552
2025-09-11 10:29:44,1615599
2025-09-11 10:29:45,1615556
2025-09-11 10:29:45,1615669
2025-09-11 10:29:45,1615627
2025-09-11 10:29:45,1615712
2025-09-11 10:29:45,1615716
2025-09-11 10:29:45,1615807
2025-09-11 10:29:45,1615775
2025-09-11 10:29:45,1615959
2025-09-11 10:29:45,1616004
2025-09-11 10:29:45,1616160
2025-09-11 10:29:45,1616209
2025-09-11 10:29:45,1616274
2025-09-11 10:29:45,1616306
2025-09-11 10:29:45,1616479
2025-09-11 10:29:45,1616560
2025-09-11 10:29:45,1616690
2025-09-11 10:29:45,1616831
2025-09-11 10:29:45,1616874
2025-09-11 10:29:45,1616996
2025-09-11 10:29:45,1617126
2025-09-11 10:29:45,1617251
2025-09-11 10:29:45,1617387
2025-09-11 10:29:45,1617453
2025-09-11 10:29:45,1617585
2025-09-11 10:29:45,1617673
2025-09-11 10:29:45,1617816
2025-09-11 10:29:45,1617898
2025-09-11 10:29:45,1618052
2025-09-11 10:29:45,1618241
2025-09-11 10:29:45,1618293
2025-09-11 10:29:45,1618430
2025-09-11 10:29:45,1618630
2025-09-11 10:29:45,1618692
2025-09-11 10:29:45,1618814
2025-09-11 10:29:45,1618951
2025-09-11 10:29:45,1619097
2025-09-11 10:29:45,1619142
2025-09-11 10:29:45,1619303
2025-09-11 10:29:45,1619435
2025-09-11 10:29:45,1619570
2025-09-11 10:29:45,1619708
2025-09-11 10:29:45,1619871
2025-09-11 10:29:45,1620085
2025-09-11 10:29:45,1620135
2025-09-11 10:29:45,1620116
2025-09-11 10:29:45,1620028
2025-09-11 10:29:45,1619677
2025-09-11 10:29:45,1619175
2025-09-11 10:29:45,1618801
2025-09-11 10:29:45,1618302
2025-09-11 10:29:45,1617719
2025-09-11 10:29:45,1617251
2025-09-11 10:29:45,1616873
2025-09-11 10:29:45,1616581
2025-09-11 10:29:45,1616287
2025-09-11 10:29:45,1616104
2025-09-11 10:29:45,1615850
2025-09-11 10:29:45,1615668
2025-09-11 10:29:45,1615597
2025-09-11 10:29:45,1615599
2025-09-11 10:29:45,1615463
2025-09-11 10:29:45,1615408
2025-09-11 10:29:45,1615259
2025-09-11 10:29:45,1615166
2025-09-11 10:29:45,1615164
2025-09-11 10:29:45,1615049
2025-09-11 10:29:45,1615047
2025-09-11 10:29:45,1614998
2025-09-11 10:29:45,1615020
2025-09-11 10:29:45,1614999
2025-09-11 10:29:45,1615020
2025-09-11 10:29:45,1614866
2025-09-11 10:29:45,1614954
2025-09-11 10:29:45,1615039
2025-09-11 10:29:45,1615052
2025-09-11 10:29:45,1615119
2025-09-11 10:29:45,1615134
2025-09-11 10:29:45,1615320
2025-09-11 10:29:45,1615360
2025-09-11 10:29:45,1615397
2025-09-11 10:29:45,1615489
2025-09-11 10:29:45,1615454
2025-09-11 10:29:45,1615421
2025-09-11 10:29:45,1615531
2025-09-11 10:29:45,1615593
2025-09-11 10:29:45,1615515
2025-09-11 10:29:45,1615593
2025-09-11 10:29:45,1615482
2025-09-11 10:29:45,1615606
2025-09-11 10:29:45,1615610
2025-09-11 10:29:45,1615604
2025-09-11 10:29:45,1615634
2025-09-11 10:29:45,1615715
2025-09-11 10:29:45,1615729
2025-09-11 10:29:45,1615802
2025-09-11 10:29:45,1615905
2025-09-11 10:29:45,1615959
2025-09-11 10:29:45,1616069
2025-09-11 10:29:45,1616153
2025-09-11 10:29:45,1616162
2025-09-11 10:29:46,1616358
2025-09-11 10:29:46,1616423
2025-09-11 10:29:46,1616512
2025-09-11 10:29:46,1616515
2025-09-11 10:29:46,1616686
2025-09-11 10:29:46,1616775
2025-09-11 10:29:46,1616884
2025-09-11 10:29:46,1617020
2025-09-11 10:29:46,1617150
2025-09-11 10:29:46,1617292
2025-09-11 10:29:46,1617342
2025-09-11 10:29:46,1617481
2025-09-11 10:29:46,1617699
2025-09-11 10:29:46,1617795
2025-09-11 10:29:46,1617777
2025-09-11 10:29:46,1618010
2025-09-11 10:29:46,1618091
2025-09-11 10:29:46,1618227
2025-09-11 10:29:46,1618291
2025-09-11 10:29:46,1618475
2025-09-11 10:29:46,1618643
2025-09-11 10:29:46,1618804
2025-09-11 10:29:46,1618857
2025-09-11 10:29:46,1619030
2025-09-11 10:29:46,1619134
2025-09-11 10:29:46,1619248
2025-09-11 10:29:46,1619392
2025-09-11 10:29:46,1619547
2025-09-11 10:29:46,1619712
2025-09-11 10:29:46,1619743
2025-09-11 10:29:46,1619860
2025-09-11 10:29:46,1619887
2025-09-11 10:29:46,1619825
2025-09-11 10:29:46,1619598
2025-09-11 10:29:46,1619238
2025-09-11 10:29:46,1618744
2025-09-11 10:29:46,1618369
2025-09-11 10:29:46,1617774
2025-09-11 10:29:46,1617351
2025-09-11 10:29:46,1617039
2025-09-11 10:29:46,1616658
2025-09-11 10:29:46,1616326
2025-09-11 10:29:46,1616084
2025-09-11 10:29:46,1615886
2025-09-11 10:29:46,1615833
2025-09-11 10:29:46,1615635
2025-09-11 10:29:46,1615611
2025-09-11 10:29:46,1615472
2025-09-11 10:29:46,1615447
2025-09-11 10:29:46,1615389
