timestamp,value
2025-09-03 19:25:13,1205427
2025-09-03 19:25:13,157248
2025-09-03 19:25:13,77901
2025-09-03 19:25:13,77862
2025-09-03 19:25:13,77822
2025-09-03 19:25:13,77752
2025-09-03 19:25:13,77730
2025-09-03 19:25:13,77664
2025-09-03 19:25:13,77651
2025-09-03 19:25:13,77688
2025-09-03 19:25:13,77649
2025-09-03 19:25:13,77620
2025-09-03 19:25:13,77646
2025-09-03 19:25:13,77632
2025-09-03 19:25:13,77656
2025-09-03 19:25:13,77635
2025-09-03 19:25:13,77649
2025-09-03 19:25:13,77634
2025-09-03 19:25:13,77722
2025-09-03 19:25:13,77755
2025-09-03 19:25:13,77776
2025-09-03 19:25:13,77779
2025-09-03 19:25:13,77759
2025-09-03 19:25:13,77787
2025-09-03 19:25:13,77837
2025-09-03 19:25:13,25431
2025-09-03 19:25:13,25420
2025-09-03 19:25:13,120332
2025-09-03 19:25:13,120361
2025-09-03 19:25:13,120351
2025-09-03 19:25:13,120303
2025-09-03 19:25:13,120349
2025-09-03 19:25:13,120368
2025-09-03 19:25:13,120410
2025-09-03 19:25:13,120398
2025-09-03 19:25:13,120459
2025-09-03 19:25:13,120486
2025-09-03 19:25:13,120485
2025-09-03 19:25:13,120532
2025-09-03 19:25:13,254845
2025-09-03 19:25:13,254869
2025-09-03 19:25:13,236317
2025-09-03 19:25:13,236186
2025-09-03 19:25:13,235891
2025-09-03 19:25:13,235577
2025-09-03 19:25:13,235232
2025-09-03 19:25:13,235020
2025-09-03 19:25:13,234837
2025-09-03 19:25:13,234669
2025-09-03 19:25:13,234640
2025-09-03 19:25:13,234496
2025-09-03 19:25:13,234547
2025-09-03 19:25:13,234551
2025-09-03 19:25:13,1174960
2025-09-03 19:25:13,1175003
2025-09-03 19:25:13,1173894
2025-09-03 19:25:13,1174142
2025-09-03 19:25:13,1174399
2025-09-03 19:25:13,1174657
2025-09-03 19:25:13,1174974
2025-09-03 19:25:13,1175300
2025-09-03 19:25:13,1175663
2025-09-03 19:25:13,1175886
2025-09-03 19:25:13,1176101
2025-09-03 19:25:13,1176100
2025-09-03 19:25:13,1176185
2025-09-03 19:25:13,1176083
2025-09-03 19:25:13,1175983
2025-09-03 19:25:13,1175851
2025-09-03 19:25:13,1175762
2025-09-03 19:25:13,1175708
2025-09-03 19:25:13,1175630
2025-09-03 19:25:13,1175566
2025-09-03 19:25:13,1175642
2025-09-03 19:25:13,1175748
2025-09-03 19:25:13,1175688
2025-09-03 19:25:13,1175800
2025-09-03 19:25:13,1175874
2025-09-03 19:25:13,1175988
2025-09-03 19:25:13,1176263
2025-09-03 19:25:13,1176407
2025-09-03 19:25:13,1176632
2025-09-03 19:25:13,1176890
2025-09-03 19:25:13,1177130
2025-09-03 19:25:13,1177341
2025-09-03 19:25:13,1177652
2025-09-03 19:25:13,1177794
2025-09-03 19:25:13,1178002
2025-09-03 19:25:13,1178291
2025-09-03 19:25:13,1178447
2025-09-03 19:25:13,1178788
2025-09-03 19:25:13,1178946
2025-09-03 19:25:14,1179251
2025-09-03 19:25:14,1179449
2025-09-03 19:25:14,1179683
2025-09-03 19:25:14,1179763
2025-09-03 19:25:14,1179976
2025-09-03 19:25:14,1180089
2025-09-03 19:25:14,1180153
2025-09-03 19:25:14,1180224
2025-09-03 19:25:14,1180109
2025-09-03 19:25:14,1179390
2025-09-03 19:25:14,1178256
2025-09-03 19:25:14,1176882
2025-09-03 19:25:14,1175450
2025-09-03 19:25:14,1173976
2025-09-03 19:25:14,1172814
2025-09-03 19:25:14,1171912
2025-09-03 19:25:14,1171297
2025-09-03 19:25:14,1170966
2025-09-03 19:25:14,1170762
2025-09-03 19:25:14,1170704
2025-09-03 19:25:14,1170778
2025-09-03 19:25:14,1170838
2025-09-03 19:25:14,1170887
2025-09-03 19:25:14,1171101
2025-09-03 19:25:14,1171168
2025-09-03 19:25:14,1171302
2025-09-03 19:25:14,1171553
2025-09-03 19:25:14,1171726
2025-09-03 19:25:14,1171942
2025-09-03 19:25:14,1172137
2025-09-03 19:25:14,1172144
2025-09-03 19:25:14,1172141
2025-09-03 19:25:14,1172240
2025-09-03 19:25:14,1172089
2025-09-03 19:25:14,1171959
2025-09-03 19:25:14,1171805
2025-09-03 19:25:14,1171739
2025-09-03 19:25:14,1171593
2025-09-03 19:25:14,1171446
2025-09-03 19:25:14,1171291
2025-09-03 19:25:14,1171272
2025-09-03 19:25:14,1171212
2025-09-03 19:25:14,1171177
2025-09-03 19:25:14,1171193
2025-09-03 19:25:14,1171235
2025-09-03 19:25:14,1171319
2025-09-03 19:25:14,1171411
2025-09-03 19:25:14,1171523
2025-09-03 19:25:14,1171812
2025-09-03 19:25:14,1172239
2025-09-03 19:25:14,1172775
2025-09-03 19:25:14,1173550
2025-09-03 19:25:14,1174328
2025-09-03 19:25:14,1175205
2025-09-03 19:25:14,1176127
2025-09-03 19:25:14,1177079
2025-09-03 19:25:14,1178329
2025-09-03 19:25:14,1179802
2025-09-03 19:25:14,1181404
2025-09-03 19:25:14,1183127
2025-09-03 19:25:14,1185220
2025-09-03 19:25:14,1187007
2025-09-03 19:25:14,1188542
2025-09-03 19:25:14,1190037
2025-09-03 19:25:14,1191300
2025-09-03 19:25:14,1192532
2025-09-03 19:25:14,1193678
2025-09-03 19:25:14,1194538
2025-09-03 19:25:14,1195358
2025-09-03 19:25:14,1195532
2025-09-03 19:25:14,1195199
2025-09-03 19:25:14,1194507
2025-09-03 19:25:14,1193778
2025-09-03 19:25:14,1192738
2025-09-03 19:25:14,1192040
2025-09-03 19:25:14,1191220
2025-09-03 19:25:14,1190648
2025-09-03 19:25:14,1190089
2025-09-03 19:25:14,1189635
2025-09-03 19:25:14,1189265
2025-09-03 19:25:14,1188903
2025-09-03 19:25:14,1188563
2025-09-03 19:25:14,1188256
2025-09-03 19:25:14,1187869
2025-09-03 19:25:14,1187544
2025-09-03 19:25:14,1187354
2025-09-03 19:25:14,1187168
2025-09-03 19:25:14,1187286
2025-09-03 19:25:14,1187360
2025-09-03 19:25:14,1187620
2025-09-03 19:25:14,1187864
2025-09-03 19:25:14,1188018
2025-09-03 19:25:14,1187974
2025-09-03 19:25:14,1188011
2025-09-03 19:25:14,1187988
2025-09-03 19:25:14,1187765
2025-09-03 19:25:14,1187599
2025-09-03 19:25:14,1187468
2025-09-03 19:25:14,1187258
2025-09-03 19:25:14,1187228
2025-09-03 19:25:15,1187092
2025-09-03 19:25:15,1187002
2025-09-03 19:25:15,1186939
2025-09-03 19:25:15,1186896
2025-09-03 19:25:15,1187037
2025-09-03 19:25:15,1187048
2025-09-03 19:25:15,1187084
2025-09-03 19:25:15,1187087
2025-09-03 19:25:15,1187003
2025-09-03 19:25:15,1187008
2025-09-03 19:25:15,1186949
2025-09-03 19:25:15,1186893
2025-09-03 19:25:15,1186715
2025-09-03 19:25:15,1186613
2025-09-03 19:25:15,1186694
2025-09-03 19:25:15,1186691
2025-09-03 19:25:15,1186619
2025-09-03 19:25:15,1186591
2025-09-03 19:25:15,1186402
2025-09-03 19:25:15,1186326
2025-09-03 19:25:15,1186352
2025-09-03 19:25:15,1186286
2025-09-03 19:25:15,1186256
2025-09-03 19:25:15,1186413
2025-09-03 19:25:15,1186335
2025-09-03 19:25:15,1186480
2025-09-03 19:25:15,1186540
2025-09-03 19:25:15,1186468
2025-09-03 19:25:15,1186419
2025-09-03 19:25:15,1185955
2025-09-03 19:25:15,1184944
2025-09-03 19:25:15,1183762
2025-09-03 19:25:15,1182267
2025-09-03 19:25:15,1180931
2025-09-03 19:25:15,1179738
2025-09-03 19:25:15,1178735
2025-09-03 19:25:15,1177927
2025-09-03 19:25:15,1177293
2025-09-03 19:25:15,1177003
2025-09-03 19:25:15,1176742
2025-09-03 19:25:15,1176586
2025-09-03 19:25:15,1176471
2025-09-03 19:25:15,1176522
2025-09-03 19:25:15,1176682
2025-09-03 19:25:15,1176836
2025-09-03 19:25:15,1176948
2025-09-03 19:25:15,1177139
2025-09-03 19:25:15,1177244
2025-09-03 19:25:15,1177531
2025-09-03 19:25:15,1177616
2025-09-03 19:25:15,1177776
2025-09-03 19:25:15,1177722
2025-09-03 19:25:15,1177631
2025-09-03 19:25:15,1177543
2025-09-03 19:25:15,1177344
2025-09-03 19:25:15,1177054
2025-09-03 19:25:15,1176832
2025-09-03 19:25:15,1176559
2025-09-03 19:25:15,1176357
2025-09-03 19:25:15,1176284
2025-09-03 19:25:15,1176056
2025-09-03 19:25:15,1175985
2025-09-03 19:25:15,1175875
2025-09-03 19:25:15,1175679
2025-09-03 19:25:15,1175790
2025-09-03 19:25:15,1175815
2025-09-03 19:25:15,1175798
2025-09-03 19:25:15,1176008
2025-09-03 19:25:15,1176006
2025-09-03 19:25:15,1176070
2025-09-03 19:25:15,1176069
2025-09-03 19:25:15,1176248
2025-09-03 19:25:15,1176298
2025-09-03 19:25:15,1176386
2025-09-03 19:25:15,1176457
2025-09-03 19:25:15,1176610
2025-09-03 19:25:15,1176712
2025-09-03 19:25:15,1176769
2025-09-03 19:25:15,1177045
2025-09-03 19:25:15,1177175
2025-09-03 19:25:15,1177351
2025-09-03 19:25:15,1177570
2025-09-03 19:25:15,1177710
2025-09-03 19:25:15,1177916
2025-09-03 19:25:15,1178116
2025-09-03 19:25:15,1178348
2025-09-03 19:25:15,1178516
2025-09-03 19:25:15,1178706
2025-09-03 19:25:15,1178441
2025-09-03 19:25:15,1177730
2025-09-03 19:25:15,1176478
2025-09-03 19:25:15,1175054
2025-09-03 19:25:15,1173764
2025-09-03 19:25:15,1172626
2025-09-03 19:25:15,1171573
2025-09-03 19:25:15,1170810
2025-09-03 19:25:15,1170230
2025-09-03 19:25:15,1169859
2025-09-03 19:25:15,1169583
2025-09-03 19:25:15,1169354
2025-09-03 19:25:16,1169378
2025-09-03 19:25:16,1169337
2025-09-03 19:25:16,1169352
2025-09-03 19:25:16,1169385
2025-09-03 19:25:16,1169289
2025-09-03 19:25:16,1169432
2025-09-03 19:25:16,1169509
2025-09-03 19:25:16,1169610
2025-09-03 19:25:16,1169821
2025-09-03 19:25:16,1169860
2025-09-03 19:25:16,1169886
2025-09-03 19:25:16,1169813
2025-09-03 19:25:16,1169801
2025-09-03 19:25:16,1169644
2025-09-03 19:25:16,1169505
2025-09-03 19:25:16,1169317
2025-09-03 19:25:16,1169204
2025-09-03 19:25:16,1168982
2025-09-03 19:25:16,1168823
2025-09-03 19:25:16,1168800
2025-09-03 19:25:16,1168702
2025-09-03 19:25:16,1168677
2025-09-03 19:25:16,1168757
2025-09-03 19:25:16,1168765
2025-09-03 19:25:16,1168872
2025-09-03 19:25:16,1168999
2025-09-03 19:25:16,1169069
2025-09-03 19:25:16,1169166
2025-09-03 19:25:16,1169387
2025-09-03 19:25:16,1169474
2025-09-03 19:25:16,1169659
2025-09-03 19:25:16,1169737
2025-09-03 19:25:16,1169885
2025-09-03 19:25:16,1170010
2025-09-03 19:25:16,1170090
2025-09-03 19:25:16,1170368
2025-09-03 19:25:16,1170472
2025-09-03 19:25:16,1170539
2025-09-03 19:25:16,1170760
2025-09-03 19:25:16,1170920
2025-09-03 19:25:16,1171047
2025-09-03 19:25:16,1171247
2025-09-03 19:25:16,1171368
2025-09-03 19:25:16,1171547
2025-09-03 19:25:16,1171638
2025-09-03 19:25:16,1171762
2025-09-03 19:25:16,1171706
2025-09-03 19:25:16,1171340
2025-09-03 19:25:16,1170507
2025-09-03 19:25:16,1169195
2025-09-03 19:25:16,1167742
2025-09-03 19:25:16,1166287
2025-09-03 19:25:16,1165167
2025-09-03 19:25:16,1164165
2025-09-03 19:25:16,1163438
2025-09-03 19:25:16,1162819
2025-09-03 19:25:16,1162484
2025-09-03 19:25:16,1162128
2025-09-03 19:25:16,1161938
2025-09-03 19:25:16,1161823
2025-09-03 19:25:16,1161725
2025-09-03 19:25:16,1161710
2025-09-03 19:25:16,1161599
2025-09-03 19:25:16,1161575
2025-09-03 19:25:16,1161488
2025-09-03 19:25:16,1161554
2025-09-03 19:25:16,1161657
2025-09-03 19:25:16,1161698
2025-09-03 19:25:16,1161741
2025-09-03 19:25:16,1161733
2025-09-03 19:25:16,1161638
2025-09-03 19:25:16,1161661
2025-09-03 19:25:16,1161551
2025-09-03 19:25:16,1161407
2025-09-03 19:25:16,1161277
2025-09-03 19:25:16,1160954
2025-09-03 19:25:16,1160857
2025-09-03 19:25:16,1160709
2025-09-03 19:25:16,1160616
2025-09-03 19:25:16,1160596
2025-09-03 19:25:16,1160490
2025-09-03 19:25:16,1160532
2025-09-03 19:25:16,1160607
2025-09-03 19:25:16,1160634
2025-09-03 19:25:16,1160736
2025-09-03 19:25:16,1160938
2025-09-03 19:25:16,1161075
2025-09-03 19:25:16,1161195
2025-09-03 19:25:16,1161335
2025-09-03 19:25:16,1161473
2025-09-03 19:25:16,1161691
2025-09-03 19:25:16,1161711
2025-09-03 19:25:16,1161967
2025-09-03 19:25:16,1162156
2025-09-03 19:25:16,1162293
2025-09-03 19:25:16,1162406
2025-09-03 19:25:16,1162523
2025-09-03 19:25:16,1162692
2025-09-03 19:25:16,1162872
2025-09-03 19:25:17,1163062
2025-09-03 19:25:17,1163293
2025-09-03 19:25:17,1163379
2025-09-03 19:25:17,1163519
2025-09-03 19:25:17,1163684
2025-09-03 19:25:17,1163664
2025-09-03 19:25:17,1163537
2025-09-03 19:25:17,1163117
2025-09-03 19:25:17,1162064
2025-09-03 19:25:17,1160750
2025-09-03 19:25:17,1159356
2025-09-03 19:25:17,1157994
2025-09-03 19:25:17,1156873
2025-09-03 19:25:17,1155854
2025-09-03 19:25:17,1155129
2025-09-03 19:25:17,1154479
2025-09-03 19:25:17,1153979
2025-09-03 19:25:17,1153629
2025-09-03 19:25:17,1153370
2025-09-03 19:25:17,1153173
2025-09-03 19:25:17,1152889
2025-09-03 19:25:17,1152841
2025-09-03 19:25:17,1152637
2025-09-03 19:25:17,1152515
2025-09-03 19:25:17,1152300
2025-09-03 19:25:17,1152263
2025-09-03 19:25:17,1152287
2025-09-03 19:25:17,1152316
2025-09-03 19:25:17,1152434
2025-09-03 19:25:17,1152373
2025-09-03 19:25:17,1152339
2025-09-03 19:25:17,1152308
2025-09-03 19:25:17,1152235
2025-09-03 19:25:17,1152137
2025-09-03 19:25:17,1151900
2025-09-03 19:25:17,1151755
2025-09-03 19:25:17,1151584
2025-09-03 19:25:17,1151480
2025-09-03 19:25:17,1151344
2025-09-03 19:25:17,1151320
2025-09-03 19:25:17,1151269
2025-09-03 19:25:17,1151248
2025-09-03 19:25:17,1151349
2025-09-03 19:25:17,1151427
2025-09-03 19:25:17,1151537
2025-09-03 19:25:17,1151687
2025-09-03 19:25:17,1151827
2025-09-03 19:25:17,1152002
2025-09-03 19:25:17,1152189
2025-09-03 19:25:17,1152258
2025-09-03 19:25:17,1152444
2025-09-03 19:25:17,1152563
2025-09-03 19:25:17,1152679
2025-09-03 19:25:17,1152917
2025-09-03 19:25:17,1153099
2025-09-03 19:25:17,1153140
2025-09-03 19:25:17,1153220
2025-09-03 19:25:17,1153506
2025-09-03 19:25:17,1153610
2025-09-03 19:25:17,1153740
2025-09-03 19:25:17,1153828
2025-09-03 19:25:17,1154054
2025-09-03 19:25:17,1154283
2025-09-03 19:25:17,1154315
2025-09-03 19:25:17,1154596
2025-09-03 19:25:17,1154719
2025-09-03 19:25:17,1154827
2025-09-03 19:25:17,1154732
2025-09-03 19:25:17,1154286
2025-09-03 19:25:17,1153190
2025-09-03 19:25:17,1151920
2025-09-03 19:25:17,1150663
2025-09-03 19:25:17,1149424
2025-09-03 19:25:17,1148335
2025-09-03 19:25:17,1147448
2025-09-03 19:25:17,1146741
2025-09-03 19:25:17,1146118
2025-09-03 19:25:17,1145759
2025-09-03 19:25:17,1145436
2025-09-03 19:25:17,1145176
2025-09-03 19:25:17,1144923
2025-09-03 19:25:17,1144806
2025-09-03 19:25:17,1144708
2025-09-03 19:25:17,1144500
2025-09-03 19:25:17,1144376
2025-09-03 19:25:17,1144264
2025-09-03 19:25:17,1144369
2025-09-03 19:25:17,1144263
2025-09-03 19:25:17,1144280
2025-09-03 19:25:17,1144407
2025-09-03 19:25:17,1144367
2025-09-03 19:25:17,1144403
2025-09-03 19:25:17,1144303
2025-09-03 19:25:17,1144313
2025-09-03 19:25:17,1144243
2025-09-03 19:25:17,1144093
2025-09-03 19:25:17,1144052
2025-09-03 19:25:17,1143843
2025-09-03 19:25:17,1143780
2025-09-03 19:25:17,1143819
2025-09-03 19:25:18,1143806
2025-09-03 19:25:18,1143826
2025-09-03 19:25:18,1143823
2025-09-03 19:25:18,1143945
2025-09-03 19:25:18,1144141
2025-09-03 19:25:18,1144226
2025-09-03 19:25:18,1144490
2025-09-03 19:25:18,1144524
2025-09-03 19:25:18,1144850
2025-09-03 19:25:18,1144959
2025-09-03 19:25:18,1145131
2025-09-03 19:25:18,1145461
2025-09-03 19:25:18,1145486
2025-09-03 19:25:18,1145732
2025-09-03 19:25:18,1145911
2025-09-03 19:25:18,1146113
2025-09-03 19:25:18,1146283
2025-09-03 19:25:18,1146488
2025-09-03 19:25:18,1146600
2025-09-03 19:25:18,1146817
2025-09-03 19:25:18,1146973
2025-09-03 19:25:18,1147178
2025-09-03 19:25:18,1147316
2025-09-03 19:25:18,1147591
2025-09-03 19:25:18,1147697
2025-09-03 19:25:18,1147977
2025-09-03 19:25:18,1148199
2025-09-03 19:25:18,1148343
2025-09-03 19:25:18,1148520
2025-09-03 19:25:18,1148756
2025-09-03 19:25:18,1148914
2025-09-03 19:25:18,1148942
2025-09-03 19:25:18,1149033
2025-09-03 19:25:18,1148548
2025-09-03 19:25:18,1147699
2025-09-03 19:25:18,1146475
2025-09-03 19:25:18,1145224
2025-09-03 19:25:18,1144141
2025-09-03 19:25:18,1143081
2025-09-03 19:25:18,1142355
2025-09-03 19:25:18,1141709
2025-09-03 19:25:18,1141418
2025-09-03 19:25:18,1141076
2025-09-03 19:25:18,1140875
2025-09-03 19:25:18,1140795
2025-09-03 19:25:18,1140592
2025-09-03 19:25:18,1140564
2025-09-03 19:25:18,1140570
2025-09-03 19:25:18,1140513
2025-09-03 19:25:18,1140379
2025-09-03 19:25:18,1140445
2025-09-03 19:25:18,1140566
2025-09-03 19:25:18,1140621
2025-09-03 19:25:18,1140857
2025-09-03 19:25:18,1140936
2025-09-03 19:25:18,1140984
2025-09-03 19:25:18,1140981
2025-09-03 19:25:18,1141074
2025-09-03 19:25:18,1141143
2025-09-03 19:25:18,1141051
2025-09-03 19:25:18,1141034
2025-09-03 19:25:18,1141060
2025-09-03 19:25:18,1140926
2025-09-03 19:25:18,1140963
2025-09-03 19:25:18,1141009
2025-09-03 19:25:18,1141052
2025-09-03 19:25:18,1141220
2025-09-03 19:25:18,1141358
2025-09-03 19:25:18,1141556
2025-09-03 19:25:18,1141758
2025-09-03 19:25:18,1141916
2025-09-03 19:25:18,1142108
2025-09-03 19:25:18,1142432
2025-09-03 19:25:18,1142541
2025-09-03 19:25:18,1142809
2025-09-03 19:25:18,1143022
2025-09-03 19:25:18,1143298
2025-09-03 19:25:18,1143512
2025-09-03 19:25:18,1143775
2025-09-03 19:25:18,1143957
2025-09-03 19:25:18,1144204
2025-09-03 19:25:18,1144361
2025-09-03 19:25:18,1144628
2025-09-03 19:25:18,1144816
2025-09-03 19:25:18,1145039
2025-09-03 19:25:18,1145286
2025-09-03 19:25:18,1145487
2025-09-03 19:25:18,1145662
2025-09-03 19:25:18,1145901
2025-09-03 19:25:18,1146135
2025-09-03 19:25:18,1146347
2025-09-03 19:25:18,1146546
2025-09-03 19:25:18,1146817
2025-09-03 19:25:18,1147119
2025-09-03 19:25:18,1147382
2025-09-03 19:25:18,1147602
2025-09-03 19:25:18,1147795
2025-09-03 19:25:18,1148139
2025-09-03 19:25:18,1148190
2025-09-03 19:25:18,1148094
2025-09-03 19:25:19,1147560
2025-09-03 19:25:19,1146599
2025-09-03 19:25:19,1145490
2025-09-03 19:25:19,1144462
2025-09-03 19:25:19,1143387
2025-09-03 19:25:19,1142729
2025-09-03 19:25:19,1142140
2025-09-03 19:25:19,1141776
2025-09-03 19:25:19,1141579
2025-09-03 19:25:19,1141434
2025-09-03 19:25:19,1141420
2025-09-03 19:25:19,1141478
2025-09-03 19:25:19,1141515
2025-09-03 19:25:19,1141493
2025-09-03 19:25:19,1141582
2025-09-03 19:25:19,1141760
2025-09-03 19:25:19,1141830
2025-09-03 19:25:19,1141983
2025-09-03 19:25:19,1142168
2025-09-03 19:25:19,1142367
2025-09-03 19:25:19,1142508
2025-09-03 19:25:19,1142669
2025-09-03 19:25:19,1142756
2025-09-03 19:25:19,1142780
2025-09-03 19:25:19,1142778
2025-09-03 19:25:19,1142712
2025-09-03 19:25:19,1142729
2025-09-03 19:25:19,1142584
2025-09-03 19:25:19,1142576
2025-09-03 19:25:19,1142616
2025-09-03 19:25:19,1142689
2025-09-03 19:25:19,1142749
2025-09-03 19:25:19,1142894
2025-09-03 19:25:19,1142984
2025-09-03 19:25:19,1143144
2025-09-03 19:25:19,1143245
2025-09-03 19:25:19,1143474
2025-09-03 19:25:19,1143629
2025-09-03 19:25:19,1143928
2025-09-03 19:25:19,1144102
2025-09-03 19:25:19,1144381
2025-09-03 19:25:19,1144595
2025-09-03 19:25:19,1144747
2025-09-03 19:25:19,1144936
2025-09-03 19:25:19,1145256
2025-09-03 19:25:19,1145437
2025-09-03 19:25:19,1145702
2025-09-03 19:25:19,1145871
2025-09-03 19:25:19,1146156
2025-09-03 19:25:19,1146345
2025-09-03 19:25:19,1146535
2025-09-03 19:25:19,1146662
2025-09-03 19:25:19,1146893
2025-09-03 19:25:19,1147092
2025-09-03 19:25:19,1147239
2025-09-03 19:25:19,1147457
2025-09-03 19:25:19,1147660
2025-09-03 19:25:19,1147847
2025-09-03 19:25:19,1148045
2025-09-03 19:25:19,1148364
2025-09-03 19:25:19,1148572
2025-09-03 19:25:19,1148796
2025-09-03 19:25:19,1149025
2025-09-03 19:25:19,1149333
2025-09-03 19:25:19,1149486
2025-09-03 19:25:19,1149682
2025-09-03 19:25:19,1149760
2025-09-03 19:25:19,1149417
2025-09-03 19:25:19,1148635
2025-09-03 19:25:19,1147656
2025-09-03 19:25:19,1146458
2025-09-03 19:25:19,1145611
2025-09-03 19:25:19,1144831
2025-09-03 19:25:19,1144237
2025-09-03 19:25:19,1143881
2025-09-03 19:25:19,1143720
2025-09-03 19:25:19,1143576
2025-09-03 19:25:19,1143586
2025-09-03 19:25:19,1143666
2025-09-03 19:25:19,1143688
2025-09-03 19:25:19,1143844
2025-09-03 19:25:19,1143951
2025-09-03 19:25:19,1144086
2025-09-03 19:25:19,1144238
2025-09-03 19:25:19,1144370
2025-09-03 19:25:19,1144651
2025-09-03 19:25:19,1144797
2025-09-03 19:25:19,1145012
2025-09-03 19:25:19,1145123
2025-09-03 19:25:19,1145277
2025-09-03 19:25:19,1145224
2025-09-03 19:25:19,1145289
2025-09-03 19:25:19,1145383
2025-09-03 19:25:19,1145252
2025-09-03 19:25:19,1145189
2025-09-03 19:25:19,1145183
2025-09-03 19:25:19,1145181
2025-09-03 19:25:19,1145237
2025-09-03 19:25:19,1145294
2025-09-03 19:25:19,1145405
2025-09-03 19:25:20,1145568
2025-09-03 19:25:20,1145744
2025-09-03 19:25:20,1145954
2025-09-03 19:25:20,1146148
2025-09-03 19:25:20,1146386
2025-09-03 19:25:20,1146618
2025-09-03 19:25:20,1146886
2025-09-03 19:25:20,1147065
2025-09-03 19:25:20,1147282
2025-09-03 19:25:20,1147519
2025-09-03 19:25:20,1147779
2025-09-03 19:25:20,1148093
2025-09-03 19:25:20,1148174
2025-09-03 19:25:20,1148466
2025-09-03 19:25:20,1148721
2025-09-03 19:25:20,1148905
2025-09-03 19:25:20,1149125
2025-09-03 19:25:20,1149261
2025-09-03 19:25:20,1149509
2025-09-03 19:25:20,1149683
2025-09-03 19:25:20,1149840
2025-09-03 19:25:20,1150078
2025-09-03 19:25:20,1150396
2025-09-03 19:25:20,1150521
2025-09-03 19:25:20,1150751
2025-09-03 19:25:20,1150973
2025-09-03 19:25:20,1151235
2025-09-03 19:25:20,1151470
2025-09-03 19:25:20,1151641
2025-09-03 19:25:20,1151912
2025-09-03 19:25:20,1152240
2025-09-03 19:25:20,1152451
2025-09-03 19:25:20,1152613
2025-09-03 19:25:20,1152696
2025-09-03 19:25:20,1152510
2025-09-03 19:25:20,1151937
2025-09-03 19:25:20,1150905
2025-09-03 19:25:20,1149931
2025-09-03 19:25:20,1148956
2025-09-03 19:25:20,1148167
2025-09-03 19:25:20,1147568
2025-09-03 19:25:20,1147225
2025-09-03 19:25:20,1146964
2025-09-03 19:25:20,1146901
2025-09-03 19:25:20,1146914
2025-09-03 19:25:20,1147051
2025-09-03 19:25:20,1147151
2025-09-03 19:25:20,1147377
2025-09-03 19:25:20,1147464
2025-09-03 19:25:20,1147576
2025-09-03 19:25:20,1147762
2025-09-03 19:25:20,1147928
2025-09-03 19:25:20,1148194
2025-09-03 19:25:20,1148440
2025-09-03 19:25:20,1148671
2025-09-03 19:25:20,1148738
2025-09-03 19:25:20,1148955
2025-09-03 19:25:20,1148960
2025-09-03 19:25:20,1149031
2025-09-03 19:25:20,1149014
2025-09-03 19:25:20,1148950
2025-09-03 19:25:20,1148856
2025-09-03 19:25:20,1148848
2025-09-03 19:25:20,1148814
2025-09-03 19:25:20,1148799
2025-09-03 19:25:20,1148891
2025-09-03 19:25:20,1149053
2025-09-03 19:25:20,1149135
2025-09-03 19:25:20,1149314
2025-09-03 19:25:20,1149563
2025-09-03 19:25:20,1149762
2025-09-03 19:25:20,1149912
2025-09-03 19:25:20,1150168
2025-09-03 19:25:20,1150342
2025-09-03 19:25:20,1150556
2025-09-03 19:25:20,1150825
2025-09-03 19:25:20,1151093
2025-09-03 19:25:20,1151295
2025-09-03 19:25:20,1151515
2025-09-03 19:25:20,1151725
2025-09-03 19:25:20,1151928
2025-09-03 19:25:20,1152098
2025-09-03 19:25:20,1152370
2025-09-03 19:25:20,1152597
2025-09-03 19:25:20,1152758
2025-09-03 19:25:20,1152852
2025-09-03 19:25:20,1153104
2025-09-03 19:25:20,1153303
2025-09-03 19:25:20,1153554
2025-09-03 19:25:20,1153733
2025-09-03 19:25:20,1153930
2025-09-03 19:25:20,1154150
2025-09-03 19:25:20,1154291
2025-09-03 19:25:20,1154516
2025-09-03 19:25:20,1154691
2025-09-03 19:25:20,1154952
2025-09-03 19:25:20,1155111
2025-09-03 19:25:20,1155428
2025-09-03 19:25:20,1155567
2025-09-03 19:25:20,1155664
2025-09-03 19:25:21,1155643
2025-09-03 19:25:21,1155121
2025-09-03 19:25:21,1154240
2025-09-03 19:25:21,1153048
2025-09-03 19:25:21,1152007
2025-09-03 19:25:21,1151183
2025-09-03 19:25:21,1150547
2025-09-03 19:25:21,1150025
2025-09-03 19:25:21,1149744
2025-09-03 19:25:21,1149453
2025-09-03 19:25:21,1149649
2025-09-03 19:25:21,1149668
2025-09-03 19:25:21,1149678
2025-09-03 19:25:21,1149813
2025-09-03 19:25:21,1149915
2025-09-03 19:25:21,1150087
2025-09-03 19:25:21,1150187
2025-09-03 19:25:21,1150345
2025-09-03 19:25:21,1150471
2025-09-03 19:25:21,1150644
2025-09-03 19:25:21,1150961
2025-09-03 19:25:21,1151065
2025-09-03 19:25:21,1151157
2025-09-03 19:25:21,1151369
2025-09-03 19:25:21,1151365
2025-09-03 19:25:21,1151347
2025-09-03 19:25:21,1151306
2025-09-03 19:25:21,1151239
2025-09-03 19:25:21,1151286
2025-09-03 19:25:21,1151202
2025-09-03 19:25:21,1151203
2025-09-03 19:25:21,1151237
2025-09-03 19:25:21,1151296
2025-09-03 19:25:21,1151485
2025-09-03 19:25:21,1151588
2025-09-03 19:25:21,1151854
2025-09-03 19:25:21,1151924
2025-09-03 19:25:21,1152162
2025-09-03 19:25:21,1152301
2025-09-03 19:25:21,1152593
2025-09-03 19:25:21,1152793
2025-09-03 19:25:21,1153048
2025-09-03 19:25:21,1153223
2025-09-03 19:25:21,1153521
2025-09-03 19:25:21,1153725
2025-09-03 19:25:21,1153878
2025-09-03 19:25:21,1154096
2025-09-03 19:25:21,1154390
2025-09-03 19:25:21,1154537
2025-09-03 19:25:21,1154750
2025-09-03 19:25:21,1154923
2025-09-03 19:25:21,1155065
2025-09-03 19:25:21,1155312
2025-09-03 19:25:21,1155506
2025-09-03 19:25:21,1155638
2025-09-03 19:25:21,1155836
2025-09-03 19:25:21,1156061
2025-09-03 19:25:21,1156188
2025-09-03 19:25:21,1156427
2025-09-03 19:25:21,1156650
2025-09-03 19:25:21,1156825
2025-09-03 19:25:21,1157018
2025-09-03 19:25:21,1157230
2025-09-03 19:25:21,1157483
2025-09-03 19:25:21,1157612
2025-09-03 19:25:21,1157710
2025-09-03 19:25:21,1157422
2025-09-03 19:25:21,1156798
2025-09-03 19:25:21,1155654
2025-09-03 19:25:21,1154515
2025-09-03 19:25:21,1153400
2025-09-03 19:25:21,1152522
2025-09-03 19:25:21,1151800
2025-09-03 19:25:21,1151336
2025-09-03 19:25:21,1150986
2025-09-03 19:25:21,1150884
2025-09-03 19:25:21,1150788
2025-09-03 19:25:21,1150724
2025-09-03 19:25:21,1150766
2025-09-03 19:25:21,1150818
2025-09-03 19:25:21,1150766
2025-09-03 19:25:21,1150980
2025-09-03 19:25:21,1150950
2025-09-03 19:25:21,1150989
2025-09-03 19:25:21,1151041
2025-09-03 19:25:21,1151320
2025-09-03 19:25:21,1151391
2025-09-03 19:25:21,1151499
2025-09-03 19:25:21,1151609
2025-09-03 19:25:21,1151723
2025-09-03 19:25:21,1151796
2025-09-03 19:25:21,1151819
2025-09-03 19:25:21,1151761
2025-09-03 19:25:21,1151681
2025-09-03 19:25:21,1151719
2025-09-03 19:25:21,1151604
2025-09-03 19:25:21,1151609
2025-09-03 19:25:21,1151570
2025-09-03 19:25:21,1151556
2025-09-03 19:25:21,1151688
2025-09-03 19:25:22,1151815
2025-09-03 19:25:22,1151929
2025-09-03 19:25:22,1152019
2025-09-03 19:25:22,1152192
2025-09-03 19:25:22,1152397
2025-09-03 19:25:22,1152640
2025-09-03 19:25:22,1152834
2025-09-03 19:25:22,1153010
2025-09-03 19:25:22,1153252
2025-09-03 19:25:22,1153442
2025-09-03 19:25:22,1153755
2025-09-03 19:25:22,1153866
2025-09-03 19:25:22,1154061
2025-09-03 19:25:22,1154278
2025-09-03 19:25:22,1154404
2025-09-03 19:25:22,1154519
2025-09-03 19:25:22,1154749
2025-09-03 19:25:22,1154970
2025-09-03 19:25:22,1155169
2025-09-03 19:25:22,1155380
2025-09-03 19:25:22,1155501
2025-09-03 19:25:22,1155631
2025-09-03 19:25:22,1155840
2025-09-03 19:25:22,1155989
2025-09-03 19:25:22,1156247
2025-09-03 19:25:22,1156340
2025-09-03 19:25:22,1156584
2025-09-03 19:25:22,1156760
2025-09-03 19:25:22,1156948
2025-09-03 19:25:22,1157147
2025-09-03 19:25:22,1157365
2025-09-03 19:25:22,1157498
2025-09-03 19:25:22,1157695
2025-09-03 19:25:22,1157746
2025-09-03 19:25:22,1157377
2025-09-03 19:25:22,1156643
2025-09-03 19:25:22,1155504
2025-09-03 19:25:22,1154340
2025-09-03 19:25:22,1153154
2025-09-03 19:25:22,1152374
2025-09-03 19:25:22,1151640
2025-09-03 19:25:22,1151096
2025-09-03 19:25:22,1150862
2025-09-03 19:25:22,1150717
2025-09-03 19:25:22,1150670
2025-09-03 19:25:22,1150646
2025-09-03 19:25:22,1150702
2025-09-03 19:25:22,1150806
2025-09-03 19:25:22,1150806
2025-09-03 19:25:22,1150917
2025-09-03 19:25:22,1150875
2025-09-03 19:25:22,1151028
2025-09-03 19:25:22,1151082
2025-09-03 19:25:22,1151246
2025-09-03 19:25:22,1151377
2025-09-03 19:25:22,1151442
2025-09-03 19:25:22,1151625
2025-09-03 19:25:22,1151666
2025-09-03 19:25:22,1151659
2025-09-03 19:25:22,1151713
2025-09-03 19:25:22,1151671
2025-09-03 19:25:22,1151552
2025-09-03 19:25:22,1151588
2025-09-03 19:25:22,1151504
2025-09-03 19:25:22,1151437
2025-09-03 19:25:22,1151474
2025-09-03 19:25:22,1151550
2025-09-03 19:25:22,1151551
2025-09-03 19:25:22,1151712
2025-09-03 19:25:22,1151809
2025-09-03 19:25:22,1151981
2025-09-03 19:25:22,1152154
2025-09-03 19:25:22,1152363
2025-09-03 19:25:22,1152590
2025-09-03 19:25:22,1152728
2025-09-03 19:25:22,1152978
2025-09-03 19:25:22,1153183
2025-09-03 19:25:22,1153390
2025-09-03 19:25:22,1153654
2025-09-03 19:25:22,1153879
2025-09-03 19:25:22,1154050
2025-09-03 19:25:22,1154240
2025-09-03 19:25:22,1154454
2025-09-03 19:25:22,1154649
2025-09-03 19:25:22,1154796
2025-09-03 19:25:22,1155017
2025-09-03 19:25:22,1155212
2025-09-03 19:25:22,1155399
2025-09-03 19:25:22,1155594
2025-09-03 19:25:22,1155700
2025-09-03 19:25:22,1155968
2025-09-03 19:25:22,1156116
2025-09-03 19:25:22,1156337
2025-09-03 19:25:22,1156450
2025-09-03 19:25:22,1156675
2025-09-03 19:25:22,1156914
2025-09-03 19:25:22,1157101
2025-09-03 19:25:22,1157227
2025-09-03 19:25:22,1157486
2025-09-03 19:25:22,1157736
2025-09-03 19:25:22,1157888
2025-09-03 19:25:23,1157964
2025-09-03 19:25:23,1157637
2025-09-03 19:25:23,1156950
2025-09-03 19:25:23,1155909
2025-09-03 19:25:23,1154612
2025-09-03 19:25:23,1153618
2025-09-03 19:25:23,1152639
2025-09-03 19:25:23,1151965
2025-09-03 19:25:23,1151530
2025-09-03 19:25:23,1151290
2025-09-03 19:25:23,1151038
2025-09-03 19:25:23,1151076
2025-09-03 19:25:23,1151054
2025-09-03 19:25:23,1151147
2025-09-03 19:25:23,1151350
2025-09-03 19:25:23,1151329
2025-09-03 19:25:23,1151570
2025-09-03 19:25:23,1151580
2025-09-03 19:25:23,1151802
2025-09-03 19:25:23,1151970
2025-09-03 19:25:23,1152103
2025-09-03 19:25:23,1152331
2025-09-03 19:25:23,1152437
2025-09-03 19:25:23,1152522
2025-09-03 19:25:23,1152531
2025-09-03 19:25:23,1152682
2025-09-03 19:25:23,1152656
2025-09-03 19:25:23,1152554
2025-09-03 19:25:23,1152448
2025-09-03 19:25:23,1152437
2025-09-03 19:25:23,1152395
2025-09-03 19:25:23,1152370
2025-09-03 19:25:23,1152423
2025-09-03 19:25:23,1152432
2025-09-03 19:25:23,1152501
2025-09-03 19:25:23,1152641
2025-09-03 19:25:23,1152796
2025-09-03 19:25:23,1152995
2025-09-03 19:25:23,1153157
2025-09-03 19:25:23,1153334
2025-09-03 19:25:23,1153611
2025-09-03 19:25:23,1153882
2025-09-03 19:25:23,1154080
2025-09-03 19:25:23,1154315
2025-09-03 19:25:23,1154583
2025-09-03 19:25:23,1154734
2025-09-03 19:25:23,1154923
2025-09-03 19:25:23,1155144
2025-09-03 19:25:23,1155421
2025-09-03 19:25:23,1155562
2025-09-03 19:25:23,1155841
2025-09-03 19:25:23,1155976
2025-09-03 19:25:23,1156144
2025-09-03 19:25:23,1156359
2025-09-03 19:25:23,1156518
2025-09-03 19:25:23,1156740
2025-09-03 19:25:23,1156919
2025-09-03 19:25:23,1157170
2025-09-03 19:25:23,1157400
2025-09-03 19:25:23,1157480
2025-09-03 19:25:23,1157730
2025-09-03 19:25:23,1157988
2025-09-03 19:25:23,1158145
2025-09-03 19:25:23,1158329
2025-09-03 19:25:23,1158509
2025-09-03 19:25:23,1158780
2025-09-03 19:25:23,1158977
2025-09-03 19:25:23,1159127
2025-09-03 19:25:23,1159310
2025-09-03 19:25:23,1159254
2025-09-03 19:25:23,1158670
2025-09-03 19:25:23,1157577
2025-09-03 19:25:23,1156414
2025-09-03 19:25:23,1155217
2025-09-03 19:25:23,1154243
2025-09-03 19:25:23,1153509
2025-09-03 19:25:23,1152948
2025-09-03 19:25:23,1152718
2025-09-03 19:25:23,1152593
2025-09-03 19:25:23,1152439
2025-09-03 19:25:23,1152586
2025-09-03 19:25:23,1152697
2025-09-03 19:25:23,1152847
2025-09-03 19:25:23,1152972
2025-09-03 19:25:23,1153177
2025-09-03 19:25:23,1153398
2025-09-03 19:25:23,1153559
2025-09-03 19:25:23,1153702
2025-09-03 19:25:23,1153873
2025-09-03 19:25:23,1154201
2025-09-03 19:25:23,1154403
2025-09-03 19:25:23,1154455
2025-09-03 19:25:23,1154527
2025-09-03 19:25:23,1154597
2025-09-03 19:25:23,1154520
2025-09-03 19:25:23,1154477
2025-09-03 19:25:23,1154403
2025-09-03 19:25:23,1154393
2025-09-03 19:25:23,1154242
2025-09-03 19:25:23,1154205
2025-09-03 19:25:24,1154290
2025-09-03 19:25:24,1154366
2025-09-03 19:25:24,1154493
2025-09-03 19:25:24,1154528
2025-09-03 19:25:24,1154723
2025-09-03 19:25:24,1154909
2025-09-03 19:25:24,1155118
2025-09-03 19:25:24,1155243
2025-09-03 19:25:24,1155439
2025-09-03 19:25:24,1155739
2025-09-03 19:25:24,1155937
2025-09-03 19:25:24,1156112
2025-09-03 19:25:24,1156329
2025-09-03 19:25:24,1156568
2025-09-03 19:25:24,1156756
2025-09-03 19:25:24,1157044
2025-09-03 19:25:24,1157202
2025-09-03 19:25:24,1157363
2025-09-03 19:25:24,1157646
2025-09-03 19:25:24,1157802
2025-09-03 19:25:24,1157990
2025-09-03 19:25:24,1158154
2025-09-03 19:25:24,1158498
2025-09-03 19:25:24,1158617
2025-09-03 19:25:24,1158821
2025-09-03 19:25:24,1159000
2025-09-03 19:25:24,1159245
2025-09-03 19:25:24,1159365
2025-09-03 19:25:24,1159628
2025-09-03 19:25:24,1159754
2025-09-03 19:25:24,1159971
2025-09-03 19:25:24,1160198
2025-09-03 19:25:24,1160464
2025-09-03 19:25:24,1160574
2025-09-03 19:25:24,1160762
2025-09-03 19:25:24,1160931
2025-09-03 19:25:24,1160987
2025-09-03 19:25:24,1160451
2025-09-03 19:25:24,1159537
2025-09-03 19:25:24,1158305
2025-09-03 19:25:24,1157242
2025-09-03 19:25:24,1156137
2025-09-03 19:25:24,1155391
2025-09-03 19:25:24,1154857
2025-09-03 19:25:24,1154478
2025-09-03 19:25:24,1154302
2025-09-03 19:25:24,1154249
2025-09-03 19:25:24,1154389
2025-09-03 19:25:24,1154440
2025-09-03 19:25:24,1154623
2025-09-03 19:25:24,1154782
2025-09-03 19:25:24,1154998
2025-09-03 19:25:24,1155165
2025-09-03 19:25:24,1155487
2025-09-03 19:25:24,1155622
2025-09-03 19:25:24,1155929
2025-09-03 19:25:24,1156129
2025-09-03 19:25:24,1156312
2025-09-03 19:25:24,1156415
2025-09-03 19:25:24,1156464
2025-09-03 19:25:24,1156586
2025-09-03 19:25:24,1156529
2025-09-03 19:25:24,1156456
2025-09-03 19:25:24,1156404
2025-09-03 19:25:24,1156330
2025-09-03 19:25:24,1156308
2025-09-03 19:25:24,1156272
2025-09-03 19:25:24,1156210
2025-09-03 19:25:24,1156211
2025-09-03 19:25:24,1156297
2025-09-03 19:25:24,1156407
2025-09-03 19:25:24,1156511
2025-09-03 19:25:24,1156658
2025-09-03 19:25:24,1156880
2025-09-03 19:25:24,1157062
2025-09-03 19:25:24,1157292
2025-09-03 19:25:24,1157450
2025-09-03 19:25:24,1157714
2025-09-03 19:25:24,1157885
2025-09-03 19:25:24,1158141
2025-09-03 19:25:24,1158347
2025-09-03 19:25:24,1158611
2025-09-03 19:25:24,1158783
2025-09-03 19:25:24,1158957
2025-09-03 19:25:24,1159136
2025-09-03 19:25:24,1159384
2025-09-03 19:25:24,1159598
2025-09-03 19:25:24,1159773
2025-09-03 19:25:24,1159899
2025-09-03 19:25:24,1160135
2025-09-03 19:25:24,1160311
2025-09-03 19:25:24,1160560
2025-09-03 19:25:24,1160667
2025-09-03 19:25:24,1160879
2025-09-03 19:25:24,1161164
2025-09-03 19:25:24,1161315
2025-09-03 19:25:24,1161392
2025-09-03 19:25:24,1161683
2025-09-03 19:25:24,1161788
2025-09-03 19:25:25,1161927
2025-09-03 19:25:25,1162109
2025-09-03 19:25:25,1162094
2025-09-03 19:25:25,1161718
2025-09-03 19:25:25,1160861
2025-09-03 19:25:25,1159621
2025-09-03 19:25:25,1158379
2025-09-03 19:25:25,1157317
2025-09-03 19:25:25,1156453
2025-09-03 19:25:25,1155798
2025-09-03 19:25:25,1155426
2025-09-03 19:25:25,1155222
2025-09-03 19:25:25,1155100
2025-09-03 19:25:25,1155143
2025-09-03 19:25:25,1155096
2025-09-03 19:25:25,1155254
2025-09-03 19:25:25,1155441
2025-09-03 19:25:25,1155560
2025-09-03 19:25:25,1155643
2025-09-03 19:25:25,1155847
2025-09-03 19:25:25,1155954
2025-09-03 19:25:25,1156183
2025-09-03 19:25:25,1156377
2025-09-03 19:25:25,1156575
2025-09-03 19:25:25,1156646
2025-09-03 19:25:25,1156754
2025-09-03 19:25:25,1156847
2025-09-03 19:25:25,1156760
2025-09-03 19:25:25,1156829
2025-09-03 19:25:25,1156753
2025-09-03 19:25:25,1156595
2025-09-03 19:25:25,1156584
2025-09-03 19:25:25,1156454
2025-09-03 19:25:25,1156468
2025-09-03 19:25:25,1156406
2025-09-03 19:25:25,1156466
2025-09-03 19:25:25,1156583
2025-09-03 19:25:25,1156682
2025-09-03 19:25:25,1156824
2025-09-03 19:25:25,1156913
2025-09-03 19:25:25,1157194
2025-09-03 19:25:25,1157355
2025-09-03 19:25:25,1157546
2025-09-03 19:25:25,1157699
2025-09-03 19:25:25,1157895
2025-09-03 19:25:25,1158110
2025-09-03 19:25:25,1158267
2025-09-03 19:25:25,1158523
2025-09-03 19:25:25,1158700
2025-09-03 19:25:25,1158965
2025-09-03 19:25:25,1159136
2025-09-03 19:25:25,1159280
2025-09-03 19:25:25,1159475
2025-09-03 19:25:25,1159649
2025-09-03 19:25:25,1159823
2025-09-03 19:25:25,1160038
2025-09-03 19:25:25,1160135
2025-09-03 19:25:25,1160340
2025-09-03 19:25:25,1160509
2025-09-03 19:25:25,1160709
2025-09-03 19:25:25,1160848
2025-09-03 19:25:25,1161111
2025-09-03 19:25:25,1161159
2025-09-03 19:25:25,1161425
2025-09-03 19:25:25,1161549
2025-09-03 19:25:25,1161622
2025-09-03 19:25:25,1161712
2025-09-03 19:25:25,1161293
2025-09-03 19:25:25,1160391
2025-09-03 19:25:25,1159211
2025-09-03 19:25:25,1157856
2025-09-03 19:25:25,1156763
2025-09-03 19:25:25,1155647
2025-09-03 19:25:25,1154995
2025-09-03 19:25:25,1154478
2025-09-03 19:25:25,1154076
2025-09-03 19:25:25,1153982
2025-09-03 19:25:25,1153853
2025-09-03 19:25:25,1153918
2025-09-03 19:25:25,1153796
2025-09-03 19:25:25,1153907
2025-09-03 19:25:25,1153942
2025-09-03 19:25:25,1154012
2025-09-03 19:25:25,1153968
2025-09-03 19:25:25,1154044
2025-09-03 19:25:25,1154184
2025-09-03 19:25:25,1154283
2025-09-03 19:25:25,1154456
2025-09-03 19:25:25,1154558
2025-09-03 19:25:25,1154707
2025-09-03 19:25:25,1154599
2025-09-03 19:25:25,1154664
2025-09-03 19:25:25,1154687
2025-09-03 19:25:25,1154529
2025-09-03 19:25:25,1154448
2025-09-03 19:25:25,1154332
2025-09-03 19:25:25,1154252
2025-09-03 19:25:25,1154167
2025-09-03 19:25:25,1154254
2025-09-03 19:25:25,1154158
2025-09-03 19:25:26,1154229
2025-09-03 19:25:26,1154285
2025-09-03 19:25:26,1154339
2025-09-03 19:25:26,1154485
2025-09-03 19:25:26,1154591
2025-09-03 19:25:26,1154855
2025-09-03 19:25:26,1155016
2025-09-03 19:25:26,1155194
2025-09-03 19:25:26,1155356
2025-09-03 19:25:26,1155549
2025-09-03 19:25:26,1155736
2025-09-03 19:25:26,1156006
2025-09-03 19:25:26,1156074
2025-09-03 19:25:26,1156212
2025-09-03 19:25:26,1156452
2025-09-03 19:25:26,1156616
2025-09-03 19:25:26,1156753
2025-09-03 19:25:26,1156934
2025-09-03 19:25:26,1157103
2025-09-03 19:25:26,1157302
2025-09-03 19:25:26,1157454
2025-09-03 19:25:26,1157627
2025-09-03 19:25:26,1157647
2025-09-03 19:25:26,1157899
2025-09-03 19:25:26,1158033
2025-09-03 19:25:26,1158182
2025-09-03 19:25:26,1158363
2025-09-03 19:25:26,1158512
2025-09-03 19:25:26,1158645
2025-09-03 19:25:26,1158893
2025-09-03 19:25:26,1158974
2025-09-03 19:25:26,1158947
2025-09-03 19:25:26,1158579
2025-09-03 19:25:26,1157759
2025-09-03 19:25:26,1156416
2025-09-03 19:25:26,1155174
2025-09-03 19:25:26,1154030
2025-09-03 19:25:26,1153053
2025-09-03 19:25:26,1152238
2025-09-03 19:25:26,1151790
2025-09-03 19:25:26,1151365
2025-09-03 19:25:26,1151210
2025-09-03 19:25:26,1151092
2025-09-03 19:25:26,1151043
2025-09-03 19:25:26,1151052
2025-09-03 19:25:26,1151064
2025-09-03 19:25:26,1151106
2025-09-03 19:25:26,1150963
2025-09-03 19:25:26,1151105
2025-09-03 19:25:26,1151058
2025-09-03 19:25:26,1151120
2025-09-03 19:25:26,1151261
2025-09-03 19:25:26,1151361
2025-09-03 19:25:26,1151380
2025-09-03 19:25:26,1151447
2025-09-03 19:25:26,1151557
2025-09-03 19:25:26,1151585
2025-09-03 19:25:26,1151488
2025-09-03 19:25:26,1151443
2025-09-03 19:25:26,1151307
2025-09-03 19:25:26,1151135
2025-09-03 19:25:26,1151073
2025-09-03 19:25:26,1151025
2025-09-03 19:25:26,1150957
2025-09-03 19:25:26,1151013
2025-09-03 19:25:26,1150978
2025-09-03 19:25:26,1151086
2025-09-03 19:25:26,1151182
2025-09-03 19:25:26,1151333
2025-09-03 19:25:26,1151452
2025-09-03 19:25:26,1151667
2025-09-03 19:25:26,1151895
2025-09-03 19:25:26,1151931
2025-09-03 19:25:26,1152109
2025-09-03 19:25:26,1152309
2025-09-03 19:25:26,1152497
2025-09-03 19:25:26,1152602
2025-09-03 19:25:26,1152834
2025-09-03 19:25:26,1152998
2025-09-03 19:25:26,1153123
2025-09-03 19:25:26,1153304
2025-09-03 19:25:26,1153481
2025-09-03 19:25:26,1153586
2025-09-03 19:25:26,1153821
2025-09-03 19:25:26,1154023
2025-09-03 19:25:26,1154174
2025-09-03 19:25:26,1154241
2025-09-03 19:25:26,1154476
2025-09-03 19:25:26,1154526
2025-09-03 19:25:26,1154839
2025-09-03 19:25:26,1154958
2025-09-03 19:25:26,1155104
2025-09-03 19:25:26,1155227
2025-09-03 19:25:26,1155461
2025-09-03 19:25:26,1155627
2025-09-03 19:25:26,1155820
2025-09-03 19:25:26,1155910
2025-09-03 19:25:26,1155916
2025-09-03 19:25:26,1155552
2025-09-03 19:25:26,1154695
2025-09-03 19:25:27,1153522
2025-09-03 19:25:27,1152256
2025-09-03 19:25:27,1151303
2025-09-03 19:25:27,1150339
2025-09-03 19:25:27,1149766
2025-09-03 19:25:27,1149219
2025-09-03 19:25:27,1148926
2025-09-03 19:25:27,1148735
2025-09-03 19:25:27,1148641
2025-09-03 19:25:27,1148685
2025-09-03 19:25:27,1148666
2025-09-03 19:25:27,1148780
2025-09-03 19:25:27,1148772
2025-09-03 19:25:27,1148806
2025-09-03 19:25:27,1148857
2025-09-03 19:25:27,1148879
2025-09-03 19:25:27,1148982
2025-09-03 19:25:27,1149159
2025-09-03 19:25:27,1149189
2025-09-03 19:25:27,1149313
2025-09-03 19:25:27,1149431
2025-09-03 19:25:27,1149396
2025-09-03 19:25:27,1149435
2025-09-03 19:25:27,1149343
2025-09-03 19:25:27,1149118
2025-09-03 19:25:27,1149119
2025-09-03 19:25:27,1149040
2025-09-03 19:25:27,1148941
2025-09-03 19:25:27,1148893
2025-09-03 19:25:27,1148853
2025-09-03 19:25:27,1148824
2025-09-03 19:25:27,1148851
2025-09-03 19:25:27,1149078
2025-09-03 19:25:27,1149099
2025-09-03 19:25:27,1149289
2025-09-03 19:25:27,1149459
2025-09-03 19:25:27,1149659
2025-09-03 19:25:27,1149875
2025-09-03 19:25:27,1150059
2025-09-03 19:25:27,1150343
2025-09-03 19:25:27,1150542
2025-09-03 19:25:27,1150770
2025-09-03 19:25:27,1150955
2025-09-03 19:25:27,1151139
2025-09-03 19:25:27,1151350
2025-09-03 19:25:27,1151597
2025-09-03 19:25:27,1151672
2025-09-03 19:25:27,1151966
2025-09-03 19:25:27,1152158
2025-09-03 19:25:27,1152290
2025-09-03 19:25:27,1152477
2025-09-03 19:25:27,1152596
2025-09-03 19:25:27,1152816
2025-09-03 19:25:27,1152892
2025-09-03 19:25:27,1153114
2025-09-03 19:25:27,1153212
2025-09-03 19:25:27,1153380
2025-09-03 19:25:27,1153464
2025-09-03 19:25:27,1153704
2025-09-03 19:25:27,1153951
2025-09-03 19:25:27,1154006
2025-09-03 19:25:27,1154220
2025-09-03 19:25:27,1154312
2025-09-03 19:25:27,1154400
2025-09-03 19:25:27,1154068
2025-09-03 19:25:27,1153286
2025-09-03 19:25:27,1152186
2025-09-03 19:25:27,1151083
2025-09-03 19:25:27,1149868
2025-09-03 19:25:27,1149025
2025-09-03 19:25:27,1148269
2025-09-03 19:25:27,1147709
2025-09-03 19:25:27,1147399
2025-09-03 19:25:27,1147220
2025-09-03 19:25:27,1147142
2025-09-03 19:25:27,1147126
2025-09-03 19:25:27,1147054
2025-09-03 19:25:27,1147153
2025-09-03 19:25:27,1147217
2025-09-03 19:25:27,1147291
2025-09-03 19:25:27,1147326
2025-09-03 19:25:27,1147465
2025-09-03 19:25:27,1147544
2025-09-03 19:25:27,1147701
2025-09-03 19:25:27,1147860
2025-09-03 19:25:27,1147963
2025-09-03 19:25:27,1147974
2025-09-03 19:25:27,1147980
2025-09-03 19:25:27,1147966
2025-09-03 19:25:27,1147901
2025-09-03 19:25:27,1147707
2025-09-03 19:25:27,1147662
2025-09-03 19:25:27,1147579
2025-09-03 19:25:27,1147464
2025-09-03 19:25:27,1147382
2025-09-03 19:25:27,1147401
2025-09-03 19:25:27,1147374
2025-09-03 19:25:27,1147406
2025-09-03 19:25:27,1147467
2025-09-03 19:25:27,1147673
2025-09-03 19:25:28,1147774
2025-09-03 19:25:28,1147985
2025-09-03 19:25:28,1148063
2025-09-03 19:25:28,1148400
2025-09-03 19:25:28,1148514
2025-09-03 19:25:28,1148711
2025-09-03 19:25:28,1148854
2025-09-03 19:25:28,1149051
2025-09-03 19:25:28,1149244
2025-09-03 19:25:28,1149349
2025-09-03 19:25:28,1149526
2025-09-03 19:25:28,1149756
2025-09-03 19:25:28,1149877
2025-09-03 19:25:28,1150055
2025-09-03 19:25:28,1150196
2025-09-03 19:25:28,1150434
2025-09-03 19:25:28,1150477
2025-09-03 19:25:28,1150637
2025-09-03 19:25:28,1150760
2025-09-03 19:25:28,1151004
2025-09-03 19:25:28,1151216
2025-09-03 19:25:28,1151333
2025-09-03 19:25:28,1151415
2025-09-03 19:25:28,1151664
2025-09-03 19:25:28,1151796
2025-09-03 19:25:28,1152009
2025-09-03 19:25:28,1152187
2025-09-03 19:25:28,1152273
2025-09-03 19:25:28,1152359
2025-09-03 19:25:28,1152009
2025-09-03 19:25:28,1151373
2025-09-03 19:25:28,1150317
2025-09-03 19:25:28,1149295
2025-09-03 19:25:28,1148159
2025-09-03 19:25:28,1147331
2025-09-03 19:25:28,1146576
2025-09-03 19:25:28,1146188
2025-09-03 19:25:28,1145831
2025-09-03 19:25:28,1145637
2025-09-03 19:25:28,1145599
2025-09-03 19:25:28,1145563
2025-09-03 19:25:28,1145588
2025-09-03 19:25:28,1145673
2025-09-03 19:25:28,1145738
2025-09-03 19:25:28,1145758
2025-09-03 19:25:28,1145922
2025-09-03 19:25:28,1146006
2025-09-03 19:25:28,1146212
2025-09-03 19:25:28,1146351
2025-09-03 19:25:28,1146542
2025-09-03 19:25:28,1146579
2025-09-03 19:25:28,1146635
2025-09-03 19:25:28,1146679
2025-09-03 19:25:28,1146713
2025-09-03 19:25:28,1146527
2025-09-03 19:25:28,1146405
2025-09-03 19:25:28,1146213
2025-09-03 19:25:28,1146150
2025-09-03 19:25:28,1146100
2025-09-03 19:25:28,1146051
2025-09-03 19:25:28,1146008
2025-09-03 19:25:28,1146030
2025-09-03 19:25:28,1146126
2025-09-03 19:25:28,1146332
2025-09-03 19:25:28,1146348
2025-09-03 19:25:28,1146585
2025-09-03 19:25:28,1146782
2025-09-03 19:25:28,1146898
2025-09-03 19:25:28,1147092
2025-09-03 19:25:28,1147267
2025-09-03 19:25:28,1147442
2025-09-03 19:25:28,1147638
2025-09-03 19:25:28,1147785
2025-09-03 19:25:28,1147986
2025-09-03 19:25:28,1148253
2025-09-03 19:25:28,1148427
2025-09-03 19:25:28,1148569
2025-09-03 19:25:28,1148630
2025-09-03 19:25:28,1148840
2025-09-03 19:25:28,1149107
2025-09-03 19:25:28,1149177
2025-09-03 19:25:28,1149281
2025-09-03 19:25:28,1149517
2025-09-03 19:25:28,1149656
2025-09-03 19:25:28,1149782
2025-09-03 19:25:28,1149970
2025-09-03 19:25:28,1150214
2025-09-03 19:25:28,1150266
2025-09-03 19:25:28,1150521
2025-09-03 19:25:28,1150616
2025-09-03 19:25:28,1150851
2025-09-03 19:25:28,1151069
2025-09-03 19:25:28,1151088
2025-09-03 19:25:28,1151154
2025-09-03 19:25:28,1150862
2025-09-03 19:25:28,1149995
2025-09-03 19:25:28,1148954
2025-09-03 19:25:28,1147799
2025-09-03 19:25:28,1146788
2025-09-03 19:25:28,1145811
2025-09-03 19:25:29,1145201
2025-09-03 19:25:29,1144647
2025-09-03 19:25:29,1144309
2025-09-03 19:25:29,1144077
2025-09-03 19:25:29,1144025
2025-09-03 19:25:29,1143926
2025-09-03 19:25:29,1143970
2025-09-03 19:25:29,1144044
2025-09-03 19:25:29,1144091
2025-09-03 19:25:29,1144087
2025-09-03 19:25:29,1144180
2025-09-03 19:25:29,1144164
2025-09-03 19:25:29,1144321
2025-09-03 19:25:29,1144470
2025-09-03 19:25:29,1144582
2025-09-03 19:25:29,1144755
2025-09-03 19:25:29,1144823
2025-09-03 19:25:29,1144697
2025-09-03 19:25:29,1144775
2025-09-03 19:25:29,1144707
2025-09-03 19:25:29,1144593
2025-09-03 19:25:29,1144513
2025-09-03 19:25:29,1144418
2025-09-03 19:25:29,1144321
2025-09-03 19:25:29,1144352
2025-09-03 19:25:29,1144298
2025-09-03 19:25:29,1144290
2025-09-03 19:25:29,1144412
2025-09-03 19:25:29,1144459
2025-09-03 19:25:29,1144596
2025-09-03 19:25:29,1144820
2025-09-03 19:25:29,1144934
2025-09-03 19:25:29,1145092
2025-09-03 19:25:29,1145367
2025-09-03 19:25:29,1145562
2025-09-03 19:25:29,1145716
2025-09-03 19:25:29,1145935
2025-09-03 19:25:29,1146136
2025-09-03 19:25:29,1146300
2025-09-03 19:25:29,1146489
2025-09-03 19:25:29,1146669
2025-09-03 19:25:29,1146834
2025-09-03 19:25:29,1147065
2025-09-03 19:25:29,1147178
2025-09-03 19:25:29,1147326
2025-09-03 19:25:29,1147443
2025-09-03 19:25:29,1147621
2025-09-03 19:25:29,1147814
2025-09-03 19:25:29,1148065
2025-09-03 19:25:29,1148194
2025-09-03 19:25:29,1148435
2025-09-03 19:25:29,1148618
2025-09-03 19:25:29,1148833
2025-09-03 19:25:29,1149008
2025-09-03 19:25:29,1149053
2025-09-03 19:25:29,1149338
2025-09-03 19:25:29,1149496
2025-09-03 19:25:29,1149461
2025-09-03 19:25:29,1149213
2025-09-03 19:25:29,1148502
2025-09-03 19:25:29,1147356
2025-09-03 19:25:29,1146165
2025-09-03 19:25:29,1145115
2025-09-03 19:25:29,1144160
2025-09-03 19:25:29,1143478
2025-09-03 19:25:29,1142913
2025-09-03 19:25:29,1142471
2025-09-03 19:25:29,1142159
2025-09-03 19:25:29,1142103
2025-09-03 19:25:29,1141992
2025-09-03 19:25:29,1141958
2025-09-03 19:25:29,1141875
2025-09-03 19:25:29,1141805
2025-09-03 19:25:29,1141832
2025-09-03 19:25:29,1141748
2025-09-03 19:25:29,1141761
2025-09-03 19:25:29,1141748
2025-09-03 19:25:29,1141918
2025-09-03 19:25:29,1142027
2025-09-03 19:25:29,1142028
2025-09-03 19:25:29,1142256
2025-09-03 19:25:29,1142210
2025-09-03 19:25:29,1142311
2025-09-03 19:25:29,1142213
2025-09-03 19:25:29,1142130
2025-09-03 19:25:29,1142114
2025-09-03 19:25:29,1142054
2025-09-03 19:25:29,1141958
2025-09-03 19:25:29,1141945
2025-09-03 19:25:29,1141906
2025-09-03 19:25:29,1141963
2025-09-03 19:25:29,1142052
2025-09-03 19:25:29,1142126
2025-09-03 19:25:29,1142279
2025-09-03 19:25:29,1142353
2025-09-03 19:25:29,1142602
2025-09-03 19:25:29,1142744
2025-09-03 19:25:29,1142917
2025-09-03 19:25:29,1143095
2025-09-03 19:25:29,1143301
2025-09-03 19:25:30,1143550
2025-09-03 19:25:30,1143724
2025-09-03 19:25:30,1143850
2025-09-03 19:25:30,1144174
2025-09-03 19:25:30,1144351
2025-09-03 19:25:30,1144539
2025-09-03 19:25:30,1144654
2025-09-03 19:25:30,1144826
2025-09-03 19:25:30,1145058
2025-09-03 19:25:30,1145243
2025-09-03 19:25:30,1145359
2025-09-03 19:25:30,1145514
2025-09-03 19:25:30,1145670
2025-09-03 19:25:30,1145857
2025-09-03 19:25:30,1146078
2025-09-03 19:25:30,1146288
2025-09-03 19:25:30,1146425
2025-09-03 19:25:30,1146639
2025-09-03 19:25:30,1146885
2025-09-03 19:25:30,1147104
2025-09-03 19:25:30,1147235
2025-09-03 19:25:30,1147404
2025-09-03 19:25:30,1147619
2025-09-03 19:25:30,1147706
2025-09-03 19:25:30,1147450
2025-09-03 19:25:30,1146716
2025-09-03 19:25:30,1145582
2025-09-03 19:25:30,1144428
2025-09-03 19:25:30,1143479
2025-09-03 19:25:30,1142538
2025-09-03 19:25:30,1141845
2025-09-03 19:25:30,1141335
2025-09-03 19:25:30,1140920
2025-09-03 19:25:30,1140754
2025-09-03 19:25:30,1140600
2025-09-03 19:25:30,1140526
2025-09-03 19:25:30,1140532
2025-09-03 19:25:30,1140543
2025-09-03 19:25:30,1140506
2025-09-03 19:25:30,1140486
2025-09-03 19:25:30,1140539
2025-09-03 19:25:30,1140545
2025-09-03 19:25:30,1140562
2025-09-03 19:25:30,1140715
2025-09-03 19:25:30,1140809
2025-09-03 19:25:30,1140935
2025-09-03 19:25:30,1141095
2025-09-03 19:25:30,1141132
2025-09-03 19:25:30,1141106
2025-09-03 19:25:30,1141175
2025-09-03 19:25:30,1141199
2025-09-03 19:25:30,1141002
2025-09-03 19:25:30,1141043
2025-09-03 19:25:30,1140989
2025-09-03 19:25:30,1140932
2025-09-03 19:25:30,1140999
2025-09-03 19:25:30,1141049
2025-09-03 19:25:30,1141172
2025-09-03 19:25:30,1141192
2025-09-03 19:25:30,1141390
2025-09-03 19:25:30,1141549
2025-09-03 19:25:30,1141781
2025-09-03 19:25:30,1141926
2025-09-03 19:25:30,1142211
2025-09-03 19:25:30,1142389
2025-09-03 19:25:30,1142567
2025-09-03 19:25:30,1142761
2025-09-03 19:25:30,1143066
2025-09-03 19:25:30,1143210
2025-09-03 19:25:30,1143355
2025-09-03 19:25:30,1143634
2025-09-03 19:25:30,1143776
2025-09-03 19:25:30,1144027
2025-09-03 19:25:30,1144272
2025-09-03 19:25:30,1144462
2025-09-03 19:25:30,1144632
2025-09-03 19:25:30,1144842
2025-09-03 19:25:30,1145041
2025-09-03 19:25:30,1145190
2025-09-03 19:25:30,1145296
2025-09-03 19:25:30,1145578
2025-09-03 19:25:30,1145753
2025-09-03 19:25:30,1145920
2025-09-03 19:25:30,1146177
2025-09-03 19:25:30,1146364
2025-09-03 19:25:30,1146556
2025-09-03 19:25:30,1146810
2025-09-03 19:25:30,1146992
2025-09-03 19:25:30,1147262
2025-09-03 19:25:30,1147442
2025-09-03 19:25:30,1147622
2025-09-03 19:25:30,1147535
2025-09-03 19:25:30,1147095
2025-09-03 19:25:30,1146205
2025-09-03 19:25:30,1145125
2025-09-03 19:25:30,1144075
2025-09-03 19:25:30,1143227
2025-09-03 19:25:30,1142501
2025-09-03 19:25:30,1141943
2025-09-03 19:25:30,1141683
2025-09-03 19:25:31,1141486
2025-09-03 19:25:31,1141366
2025-09-03 19:25:31,1141362
2025-09-03 19:25:31,1141317
2025-09-03 19:25:31,1141447
2025-09-03 19:25:31,1141577
2025-09-03 19:25:31,1141532
2025-09-03 19:25:31,1141633
2025-09-03 19:25:31,1141735
2025-09-03 19:25:31,1141840
2025-09-03 19:25:31,1141933
2025-09-03 19:25:31,1142182
2025-09-03 19:25:31,1142325
2025-09-03 19:25:31,1142432
2025-09-03 19:25:31,1142558
2025-09-03 19:25:31,1142624
2025-09-03 19:25:31,1142658
2025-09-03 19:25:31,1142687
2025-09-03 19:25:31,1142501
2025-09-03 19:25:31,1142519
2025-09-03 19:25:31,1142553
2025-09-03 19:25:31,1142590
2025-09-03 19:25:31,1142571
2025-09-03 19:25:31,1142678
2025-09-03 19:25:31,1142696
2025-09-03 19:25:31,1142873
2025-09-03 19:25:31,1142996
2025-09-03 19:25:31,1143271
2025-09-03 19:25:31,1143482
2025-09-03 19:25:31,1143657
2025-09-03 19:25:31,1143827
2025-09-03 19:25:31,1143990
2025-09-03 19:25:31,1144282
2025-09-03 19:25:31,1144468
2025-09-03 19:25:31,1144723
2025-09-03 19:25:31,1144922
2025-09-03 19:25:31,1145130
2025-09-03 19:25:31,1145373
2025-09-03 19:25:31,1145612
2025-09-03 19:25:31,1145862
2025-09-03 19:25:31,1145974
2025-09-03 19:25:31,1146207
2025-09-03 19:25:31,1146387
2025-09-03 19:25:31,1146501
2025-09-03 19:25:31,1146730
2025-09-03 19:25:31,1146836
2025-09-03 19:25:31,1147055
2025-09-03 19:25:31,1147211
2025-09-03 19:25:31,1147429
2025-09-03 19:25:31,1147669
2025-09-03 19:25:31,1147925
2025-09-03 19:25:31,1148015
2025-09-03 19:25:31,1148285
2025-09-03 19:25:31,1148482
2025-09-03 19:25:31,1148691
2025-09-03 19:25:31,1148894
2025-09-03 19:25:31,1149180
2025-09-03 19:25:31,1149275
2025-09-03 19:25:31,1149493
2025-09-03 19:25:31,1149615
2025-09-03 19:25:31,1149462
2025-09-03 19:25:31,1148807
2025-09-03 19:25:31,1147867
2025-09-03 19:25:31,1146811
2025-09-03 19:25:31,1145809
2025-09-03 19:25:31,1145074
2025-09-03 19:25:31,1144552
2025-09-03 19:25:31,1144155
2025-09-03 19:25:31,1144034
2025-09-03 19:25:31,1143902
2025-09-03 19:25:31,1143921
2025-09-03 19:25:31,1144013
2025-09-03 19:25:31,1144113
2025-09-03 19:25:31,1144253
2025-09-03 19:25:31,1144463
2025-09-03 19:25:31,1144482
2025-09-03 19:25:31,1144580
2025-09-03 19:25:31,1144713
2025-09-03 19:25:31,1144963
2025-09-03 19:25:31,1145046
2025-09-03 19:25:31,1145314
2025-09-03 19:25:31,1145541
2025-09-03 19:25:31,1145605
2025-09-03 19:25:31,1145702
2025-09-03 19:25:31,1145689
2025-09-03 19:25:31,1145686
2025-09-03 19:25:31,1145653
2025-09-03 19:25:31,1145633
2025-09-03 19:25:31,1145599
2025-09-03 19:25:31,1145571
2025-09-03 19:25:31,1145636
2025-09-03 19:25:31,1145609
2025-09-03 19:25:31,1145724
2025-09-03 19:25:31,1145794
2025-09-03 19:25:31,1145986
2025-09-03 19:25:31,1146161
2025-09-03 19:25:31,1146265
2025-09-03 19:25:31,1146590
2025-09-03 19:25:31,1146702
2025-09-03 19:25:31,1147015
2025-09-03 19:25:32,1147148
2025-09-03 19:25:32,1147411
2025-09-03 19:25:32,1147590
2025-09-03 19:25:32,1147813
2025-09-03 19:25:32,1148041
2025-09-03 19:25:32,1148244
2025-09-03 19:25:32,1148515
2025-09-03 19:25:32,1148575
2025-09-03 19:25:32,1148833
2025-09-03 19:25:32,1149065
2025-09-03 19:25:32,1149159
2025-09-03 19:25:32,1149357
2025-09-03 19:25:32,1149562
2025-09-03 19:25:32,1149702
2025-09-03 19:25:32,1149856
2025-09-03 19:25:32,1149998
2025-09-03 19:25:32,1150240
2025-09-03 19:25:32,1150409
2025-09-03 19:25:32,1150549
2025-09-03 19:25:32,1150731
2025-09-03 19:25:32,1150970
2025-09-03 19:25:32,1151203
2025-09-03 19:25:32,1151453
2025-09-03 19:25:32,1151575
2025-09-03 19:25:32,1151829
2025-09-03 19:25:32,1152017
2025-09-03 19:25:32,1152155
2025-09-03 19:25:32,1152409
2025-09-03 19:25:32,1152295
2025-09-03 19:25:32,1151940
2025-09-03 19:25:32,1151095
2025-09-03 19:25:32,1150064
2025-09-03 19:25:32,1149080
2025-09-03 19:25:32,1148342
2025-09-03 19:25:32,1147611
2025-09-03 19:25:32,1147182
2025-09-03 19:25:32,1146919
2025-09-03 19:25:32,1146903
2025-09-03 19:25:32,1146933
2025-09-03 19:25:32,1146946
2025-09-03 19:25:32,1147014
2025-09-03 19:25:32,1147148
2025-09-03 19:25:32,1147315
2025-09-03 19:25:32,1147453
2025-09-03 19:25:32,1147570
2025-09-03 19:25:32,1147663
2025-09-03 19:25:32,1147798
2025-09-03 19:25:32,1148051
2025-09-03 19:25:32,1148158
2025-09-03 19:25:32,1148397
2025-09-03 19:25:32,1148484
2025-09-03 19:25:32,1148592
2025-09-03 19:25:32,1148692
2025-09-03 19:25:32,1148638
2025-09-03 19:25:32,1148646
2025-09-03 19:25:32,1148570
2025-09-03 19:25:32,1148483
2025-09-03 19:25:32,1148518
2025-09-03 19:25:32,1148534
2025-09-03 19:25:32,1148527
2025-09-03 19:25:32,1148502
2025-09-03 19:25:32,1148671
2025-09-03 19:25:32,1148806
2025-09-03 19:25:32,1149040
2025-09-03 19:25:32,1149200
2025-09-03 19:25:32,1149437
2025-09-03 19:25:32,1149601
2025-09-03 19:25:32,1149778
2025-09-03 19:25:32,1150077
2025-09-03 19:25:32,1150226
2025-09-03 19:25:32,1150432
2025-09-03 19:25:32,1150660
2025-09-03 19:25:32,1150782
2025-09-03 19:25:32,1150993
2025-09-03 19:25:32,1151257
2025-09-03 19:25:32,1151381
2025-09-03 19:25:32,1151605
2025-09-03 19:25:32,1151729
2025-09-03 19:25:32,1151937
2025-09-03 19:25:32,1152203
2025-09-03 19:25:32,1152348
2025-09-03 19:25:32,1152482
2025-09-03 19:25:32,1152668
2025-09-03 19:25:32,1152851
2025-09-03 19:25:32,1152959
2025-09-03 19:25:32,1153175
2025-09-03 19:25:32,1153348
2025-09-03 19:25:32,1153518
2025-09-03 19:25:32,1153723
2025-09-03 19:25:32,1153887
2025-09-03 19:25:32,1154117
2025-09-03 19:25:32,1154232
2025-09-03 19:25:32,1154520
2025-09-03 19:25:32,1154771
2025-09-03 19:25:32,1154889
2025-09-03 19:25:32,1155028
2025-09-03 19:25:32,1154932
2025-09-03 19:25:32,1154560
2025-09-03 19:25:32,1153674
2025-09-03 19:25:32,1152470
2025-09-03 19:25:33,1151420
2025-09-03 19:25:33,1150568
2025-09-03 19:25:33,1149900
2025-09-03 19:25:33,1149401
2025-09-03 19:25:33,1149070
2025-09-03 19:25:33,1148838
2025-09-03 19:25:33,1148849
2025-09-03 19:25:33,1148748
2025-09-03 19:25:33,1148867
2025-09-03 19:25:33,1148891
2025-09-03 19:25:33,1149023
2025-09-03 19:25:33,1149139
2025-09-03 19:25:33,1149189
2025-09-03 19:25:33,1149223
2025-09-03 19:25:33,1149292
2025-09-03 19:25:33,1149452
2025-09-03 19:25:33,1149600
2025-09-03 19:25:33,1149765
2025-09-03 19:25:33,1149864
2025-09-03 19:25:33,1150035
2025-09-03 19:25:33,1150058
2025-09-03 19:25:33,1150023
2025-09-03 19:25:33,1149977
2025-09-03 19:25:33,1149948
2025-09-03 19:25:33,1149883
2025-09-03 19:25:33,1149853
2025-09-03 19:25:33,1149855
2025-09-03 19:25:33,1149852
2025-09-03 19:25:33,1149948
2025-09-03 19:25:33,1150015
2025-09-03 19:25:33,1150044
2025-09-03 19:25:33,1150167
2025-09-03 19:25:33,1150412
2025-09-03 19:25:33,1150592
2025-09-03 19:25:33,1150668
2025-09-03 19:25:33,1150867
2025-09-03 19:25:33,1151102
2025-09-03 19:25:33,1151293
2025-09-03 19:25:33,1151454
2025-09-03 19:25:33,1151652
2025-09-03 19:25:33,1151770
2025-09-03 19:25:33,1151997
2025-09-03 19:25:33,1152233
2025-09-03 19:25:33,1152429
2025-09-03 19:25:33,1152634
2025-09-03 19:25:33,1152753
2025-09-03 19:25:33,1152937
2025-09-03 19:25:33,1153129
2025-09-03 19:25:33,1153334
2025-09-03 19:25:33,1153430
2025-09-03 19:25:33,1153625
2025-09-03 19:25:33,1153833
2025-09-03 19:25:33,1153911
2025-09-03 19:25:33,1154124
2025-09-03 19:25:33,1154237
2025-09-03 19:25:33,1154358
2025-09-03 19:25:33,1154563
2025-09-03 19:25:33,1154810
2025-09-03 19:25:33,1154997
2025-09-03 19:25:33,1155177
2025-09-03 19:25:33,1155365
2025-09-03 19:25:33,1155582
2025-09-03 19:25:33,1155729
2025-09-03 19:25:33,1155900
2025-09-03 19:25:33,1156092
2025-09-03 19:25:33,1156143
2025-09-03 19:25:33,1155871
2025-09-03 19:25:33,1155106
2025-09-03 19:25:33,1154009
2025-09-03 19:25:33,1152803
2025-09-03 19:25:33,1151754
2025-09-03 19:25:33,1150870
2025-09-03 19:25:33,1150271
2025-09-03 19:25:33,1149775
2025-09-03 19:25:33,1149538
2025-09-03 19:25:33,1149403
2025-09-03 19:25:33,1149289
2025-09-03 19:25:33,1149268
2025-09-03 19:25:33,1149316
2025-09-03 19:25:33,1149287
2025-09-03 19:25:33,1149330
2025-09-03 19:25:33,1149463
2025-09-03 19:25:33,1149499
2025-09-03 19:25:33,1149505
2025-09-03 19:25:33,1149524
2025-09-03 19:25:33,1149616
2025-09-03 19:25:33,1149811
2025-09-03 19:25:33,1149907
2025-09-03 19:25:33,1150000
2025-09-03 19:25:33,1150000
2025-09-03 19:25:33,1150137
2025-09-03 19:25:33,1150165
2025-09-03 19:25:33,1150037
2025-09-03 19:25:33,1149920
2025-09-03 19:25:33,1149837
2025-09-03 19:25:33,1149823
2025-09-03 19:25:33,1149730
2025-09-03 19:25:33,1149769
2025-09-03 19:25:33,1149781
2025-09-03 19:25:33,1149851
2025-09-03 19:25:34,1149960
2025-09-03 19:25:34,1150046
2025-09-03 19:25:34,1150276
2025-09-03 19:25:34,1150339
2025-09-03 19:25:34,1150562
2025-09-03 19:25:34,1150734
2025-09-03 19:25:34,1150799
2025-09-03 19:25:34,1151068
2025-09-03 19:25:34,1151215
2025-09-03 19:25:34,1151400
2025-09-03 19:25:34,1151604
2025-09-03 19:25:34,1151724
2025-09-03 19:25:34,1151966
2025-09-03 19:25:34,1152108
2025-09-03 19:25:34,1152307
2025-09-03 19:25:34,1152442
2025-09-03 19:25:34,1152643
2025-09-03 19:25:34,1152843
2025-09-03 19:25:34,1152964
2025-09-03 19:25:34,1153126
2025-09-03 19:25:34,1153342
2025-09-03 19:25:34,1153472
2025-09-03 19:25:34,1153655
2025-09-03 19:25:34,1153808
2025-09-03 19:25:34,1153994
2025-09-03 19:25:34,1154103
2025-09-03 19:25:34,1154224
2025-09-03 19:25:34,1154276
2025-09-03 19:25:34,1154558
2025-09-03 19:25:34,1154853
2025-09-03 19:25:34,1155103
2025-09-03 19:25:34,1155233
2025-09-03 19:25:34,1155462
2025-09-03 19:25:34,1155632
2025-09-03 19:25:34,1155784
2025-09-03 19:25:34,1156026
2025-09-03 19:25:34,1156083
2025-09-03 19:25:34,1155883
2025-09-03 19:25:34,1155370
2025-09-03 19:25:34,1154156
2025-09-03 19:25:34,1152962
2025-09-03 19:25:34,1151760
2025-09-03 19:25:34,1150913
2025-09-03 19:25:34,1150127
2025-09-03 19:25:34,1149703
2025-09-03 19:25:34,1149270
2025-09-03 19:25:34,1149103
2025-09-03 19:25:34,1149026
2025-09-03 19:25:34,1148962
2025-09-03 19:25:34,1149138
2025-09-03 19:25:34,1149138
2025-09-03 19:25:34,1149214
2025-09-03 19:25:34,1149318
2025-09-03 19:25:34,1149350
2025-09-03 19:25:34,1149348
2025-09-03 19:25:34,1149484
2025-09-03 19:25:34,1149552
2025-09-03 19:25:34,1149748
2025-09-03 19:25:34,1149919
2025-09-03 19:25:34,1150067
2025-09-03 19:25:34,1150157
2025-09-03 19:25:34,1150121
2025-09-03 19:25:34,1150115
2025-09-03 19:25:34,1150080
2025-09-03 19:25:34,1149981
2025-09-03 19:25:34,1149873
2025-09-03 19:25:34,1149766
2025-09-03 19:25:34,1149761
2025-09-03 19:25:34,1149740
2025-09-03 19:25:34,1149797
2025-09-03 19:25:34,1149821
2025-09-03 19:25:34,1149884
2025-09-03 19:25:34,1149954
2025-09-03 19:25:34,1150199
2025-09-03 19:25:34,1150332
2025-09-03 19:25:34,1150474
2025-09-03 19:25:34,1150700
2025-09-03 19:25:34,1150941
2025-09-03 19:25:34,1151086
2025-09-03 19:25:34,1151256
2025-09-03 19:25:34,1151492
2025-09-03 19:25:34,1151657
2025-09-03 19:25:34,1151879
2025-09-03 19:25:34,1152027
2025-09-03 19:25:34,1152191
2025-09-03 19:25:34,1152311
2025-09-03 19:25:34,1152645
2025-09-03 19:25:34,1152795
2025-09-03 19:25:34,1152898
2025-09-03 19:25:34,1153012
2025-09-03 19:25:34,1153211
2025-09-03 19:25:34,1153425
2025-09-03 19:25:34,1153552
2025-09-03 19:25:34,1153700
2025-09-03 19:25:34,1153909
2025-09-03 19:25:34,1154012
2025-09-03 19:25:34,1154408
2025-09-03 19:25:34,1154437
2025-09-03 19:25:34,1154718
2025-09-03 19:25:34,1154885
2025-09-03 19:25:35,1155165
2025-09-03 19:25:35,1155323
2025-09-03 19:25:35,1155485
2025-09-03 19:25:35,1155726
2025-09-03 19:25:35,1155866
2025-09-03 19:25:35,1156065
2025-09-03 19:25:35,1156272
2025-09-03 19:25:35,1156434
2025-09-03 19:25:35,1156601
2025-09-03 19:25:35,1156525
2025-09-03 19:25:35,1156005
2025-09-03 19:25:35,1154984
2025-09-03 19:25:35,1153767
2025-09-03 19:25:35,1152602
2025-09-03 19:25:35,1151523
2025-09-03 19:25:35,1150846
2025-09-03 19:25:35,1150314
2025-09-03 19:25:35,1149978
2025-09-03 19:25:35,1149859
2025-09-03 19:25:35,1149825
2025-09-03 19:25:35,1149870
2025-09-03 19:25:35,1149928
2025-09-03 19:25:35,1150108
2025-09-03 19:25:35,1150232
2025-09-03 19:25:35,1150484
2025-09-03 19:25:35,1150562
2025-09-03 19:25:35,1150716
2025-09-03 19:25:35,1150849
2025-09-03 19:25:35,1151129
2025-09-03 19:25:35,1151261
2025-09-03 19:25:35,1151408
2025-09-03 19:25:35,1151603
2025-09-03 19:25:35,1151597
2025-09-03 19:25:35,1151598
2025-09-03 19:25:35,1151648
2025-09-03 19:25:35,1151528
2025-09-03 19:25:35,1151504
2025-09-03 19:25:35,1151280
2025-09-03 19:25:35,1151254
2025-09-03 19:25:35,1151229
2025-09-03 19:25:35,1151186
2025-09-03 19:25:35,1151197
2025-09-03 19:25:35,1151264
2025-09-03 19:25:35,1151387
2025-09-03 19:25:35,1151530
2025-09-03 19:25:35,1151740
2025-09-03 19:25:35,1151825
2025-09-03 19:25:35,1151987
2025-09-03 19:25:35,1152209
2025-09-03 19:25:35,1152486
2025-09-03 19:25:35,1152638
2025-09-03 19:25:35,1152869
2025-09-03 19:25:35,1153099
2025-09-03 19:25:35,1153261
2025-09-03 19:25:35,1153420
2025-09-03 19:25:35,1153612
2025-09-03 19:25:35,1153874
2025-09-03 19:25:35,1153996
2025-09-03 19:25:35,1154234
2025-09-03 19:25:35,1154403
2025-09-03 19:25:35,1154552
2025-09-03 19:25:35,1154666
2025-09-03 19:25:35,1154844
2025-09-03 19:25:35,1155151
2025-09-03 19:25:35,1155206
2025-09-03 19:25:35,1155342
2025-09-03 19:25:35,1155553
2025-09-03 19:25:35,1155808
2025-09-03 19:25:35,1155880
2025-09-03 19:25:35,1156102
2025-09-03 19:25:35,1156143
2025-09-03 19:25:35,1156447
2025-09-03 19:25:35,1156625
2025-09-03 19:25:35,1156784
2025-09-03 19:25:35,1157009
2025-09-03 19:25:35,1157201
2025-09-03 19:25:35,1157416
2025-09-03 19:25:35,1157585
2025-09-03 19:25:35,1157806
2025-09-03 19:25:35,1157846
2025-09-03 19:25:35,1157592
2025-09-03 19:25:35,1156918
2025-09-03 19:25:35,1155933
2025-09-03 19:25:35,1154795
2025-09-03 19:25:35,1153630
2025-09-03 19:25:35,1152785
2025-09-03 19:25:35,1152156
2025-09-03 19:25:35,1151855
2025-09-03 19:25:35,1151590
2025-09-03 19:25:35,1151597
2025-09-03 19:25:35,1151547
2025-09-03 19:25:35,1151735
2025-09-03 19:25:35,1151890
2025-09-03 19:25:35,1152124
2025-09-03 19:25:35,1152286
2025-09-03 19:25:35,1152674
2025-09-03 19:25:35,1152779
2025-09-03 19:25:35,1153182
2025-09-03 19:25:35,1153460
2025-09-03 19:25:36,1153848
2025-09-03 19:25:36,1154045
2025-09-03 19:25:36,1154273
2025-09-03 19:25:36,1154409
2025-09-03 19:25:36,1154548
2025-09-03 19:25:36,1154635
2025-09-03 19:25:36,1154717
2025-09-03 19:25:36,1154613
2025-09-03 19:25:36,1154595
2025-09-03 19:25:36,1154613
2025-09-03 19:25:36,1154668
2025-09-03 19:25:36,1154760
2025-09-03 19:25:36,1154786
2025-09-03 19:25:36,1154959
2025-09-03 19:25:36,1155172
2025-09-03 19:25:36,1155298
2025-09-03 19:25:36,1155504
2025-09-03 19:25:36,1155704
2025-09-03 19:25:36,1155837
2025-09-03 19:25:36,1155988
2025-09-03 19:25:36,1156257
2025-09-03 19:25:36,1156429
2025-09-03 19:25:36,1156654
2025-09-03 19:25:36,1156704
2025-09-03 19:25:36,1156907
2025-09-03 19:25:36,1157062
2025-09-03 19:25:36,1157264
2025-09-03 19:25:36,1157453
2025-09-03 19:25:36,1157546
2025-09-03 19:25:36,1157787
2025-09-03 19:25:36,1157856
2025-09-03 19:25:36,1158031
2025-09-03 19:25:36,1158192
2025-09-03 19:25:36,1158299
2025-09-03 19:25:36,1158554
2025-09-03 19:25:36,1158622
2025-09-03 19:25:36,1158727
2025-09-03 19:25:36,1158965
2025-09-03 19:25:36,1159060
2025-09-03 19:25:36,1159204
2025-09-03 19:25:36,1159403
2025-09-03 19:25:36,1159518
2025-09-03 19:25:36,1159611
2025-09-03 19:25:36,1159763
2025-09-03 19:25:36,1160010
2025-09-03 19:25:36,1160145
2025-09-03 19:25:36,1160338
2025-09-03 19:25:36,1160443
2025-09-03 19:25:36,1160331
2025-09-03 19:25:36,1159853
2025-09-03 19:25:36,1158803
2025-09-03 19:25:36,1157607
2025-09-03 19:25:36,1156115
2025-09-03 19:25:36,1155050
2025-09-03 19:25:36,1154208
2025-09-03 19:25:36,1153601
2025-09-03 19:25:36,1153213
2025-09-03 19:25:36,1152928
2025-09-03 19:25:36,1152807
2025-09-03 19:25:36,1152771
2025-09-03 19:25:36,1152762
2025-09-03 19:25:36,1152926
2025-09-03 19:25:36,1153040
2025-09-03 19:25:36,1153046
2025-09-03 19:25:36,1153163
2025-09-03 19:25:36,1153204
2025-09-03 19:25:36,1153285
2025-09-03 19:25:36,1153464
2025-09-03 19:25:36,1153668
2025-09-03 19:25:36,1153724
2025-09-03 19:25:36,1153834
2025-09-03 19:25:36,1153979
2025-09-03 19:25:36,1154033
2025-09-03 19:25:36,1154024
2025-09-03 19:25:36,1153896
2025-09-03 19:25:36,1153816
2025-09-03 19:25:36,1153729
2025-09-03 19:25:36,1153614
2025-09-03 19:25:36,1153506
2025-09-03 19:25:36,1153459
2025-09-03 19:25:36,1153405
2025-09-03 19:25:36,1153476
2025-09-03 19:25:36,1153547
2025-09-03 19:25:36,1153641
2025-09-03 19:25:36,1153812
2025-09-03 19:25:36,1153901
2025-09-03 19:25:36,1154072
2025-09-03 19:25:36,1154232
2025-09-03 19:25:36,1154424
2025-09-03 19:25:36,1154636
2025-09-03 19:25:36,1154758
2025-09-03 19:25:36,1155006
2025-09-03 19:25:36,1155139
2025-09-03 19:25:36,1155356
2025-09-03 19:25:36,1155537
2025-09-03 19:25:36,1155719
2025-09-03 19:25:36,1155861
2025-09-03 19:25:36,1156081
2025-09-03 19:25:36,1156216
2025-09-03 19:25:36,1156405
2025-09-03 19:25:37,1156479
2025-09-03 19:25:37,1156684
2025-09-03 19:25:37,1156776
2025-09-03 19:25:37,1156972
2025-09-03 19:25:37,1157045
2025-09-03 19:25:37,1157316
2025-09-03 19:25:37,1157407
2025-09-03 19:25:37,1157602
2025-09-03 19:25:37,1157648
2025-09-03 19:25:37,1157874
2025-09-03 19:25:37,1158009
2025-09-03 19:25:37,1158229
2025-09-03 19:25:37,1158422
2025-09-03 19:25:37,1158587
2025-09-03 19:25:37,1158666
2025-09-03 19:25:37,1158678
2025-09-03 19:25:37,1158263
2025-09-03 19:25:37,1157425
2025-09-03 19:25:37,1156135
2025-09-03 19:25:37,1154885
2025-09-03 19:25:37,1153737
2025-09-03 19:25:37,1152760
2025-09-03 19:25:37,1152118
2025-09-03 19:25:37,1151541
2025-09-03 19:25:37,1151196
2025-09-03 19:25:37,1151151
2025-09-03 19:25:37,1151057
2025-09-03 19:25:37,1151087
2025-09-03 19:25:37,1151163
2025-09-03 19:25:37,1151154
2025-09-03 19:25:37,1151210
2025-09-03 19:25:37,1151215
2025-09-03 19:25:37,1151303
2025-09-03 19:25:37,1151344
2025-09-03 19:25:37,1151499
2025-09-03 19:25:37,1151525
2025-09-03 19:25:37,1151592
2025-09-03 19:25:37,1151659
2025-09-03 19:25:37,1151754
2025-09-03 19:25:37,1151836
2025-09-03 19:25:37,1151839
2025-09-03 19:25:37,1151746
2025-09-03 19:25:37,1151662
2025-09-03 19:25:37,1151592
2025-09-03 19:25:37,1151401
2025-09-03 19:25:37,1151327
2025-09-03 19:25:37,1151283
2025-09-03 19:25:37,1151254
2025-09-03 19:25:37,1151217
2025-09-03 19:25:37,1151338
2025-09-03 19:25:37,1151318
2025-09-03 19:25:37,1151389
2025-09-03 19:25:37,1151695
2025-09-03 19:25:37,1151688
2025-09-03 19:25:37,1151910
2025-09-03 19:25:37,1152095
2025-09-03 19:25:37,1152236
2025-09-03 19:25:37,1152380
2025-09-03 19:25:37,1152627
2025-09-03 19:25:37,1152806
2025-09-03 19:25:37,1152981
2025-09-03 19:25:37,1153101
2025-09-03 19:25:37,1153314
2025-09-03 19:25:37,1153344
2025-09-03 19:25:37,1153718
2025-09-03 19:25:37,1153799
2025-09-03 19:25:37,1153970
2025-09-03 19:25:37,1154076
2025-09-03 19:25:37,1154253
2025-09-03 19:25:37,1154324
2025-09-03 19:25:37,1154514
2025-09-03 19:25:37,1154582
2025-09-03 19:25:37,1154700
2025-09-03 19:25:37,1154831
2025-09-03 19:25:37,1155040
2025-09-03 19:25:37,1155178
2025-09-03 19:25:37,1155357
2025-09-03 19:25:37,1155562
2025-09-03 19:25:37,1155654
2025-09-03 19:25:37,1155857
2025-09-03 19:25:37,1156010
2025-09-03 19:25:37,1156187
2025-09-03 19:25:37,1156222
2025-09-03 19:25:37,1156228
2025-09-03 19:25:37,1155840
2025-09-03 19:25:37,1154929
2025-09-03 19:25:37,1153733
2025-09-03 19:25:37,1152538
2025-09-03 19:25:37,1151483
2025-09-03 19:25:37,1150648
2025-09-03 19:25:37,1150089
2025-09-03 19:25:37,1149667
2025-09-03 19:25:37,1149410
2025-09-03 19:25:37,1149284
2025-09-03 19:25:37,1149184
2025-09-03 19:25:37,1149235
2025-09-03 19:25:37,1149344
2025-09-03 19:25:37,1149342
2025-09-03 19:25:37,1149424
2025-09-03 19:25:37,1149511
2025-09-03 19:25:38,1149592
2025-09-03 19:25:38,1149667
2025-09-03 19:25:38,1149744
2025-09-03 19:25:38,1149924
2025-09-03 19:25:38,1150053
2025-09-03 19:25:38,1150169
2025-09-03 19:25:38,1150138
2025-09-03 19:25:38,1150221
2025-09-03 19:25:38,1150230
2025-09-03 19:25:38,1150062
2025-09-03 19:25:38,1150005
2025-09-03 19:25:38,1149862
2025-09-03 19:25:38,1149709
2025-09-03 19:25:38,1149683
2025-09-03 19:25:38,1149642
2025-09-03 19:25:38,1149559
2025-09-03 19:25:38,1149648
2025-09-03 19:25:38,1149719
2025-09-03 19:25:38,1149852
2025-09-03 19:25:38,1150017
2025-09-03 19:25:38,1150075
2025-09-03 19:25:38,1150225
2025-09-03 19:25:38,1150417
2025-09-03 19:25:38,1150568
2025-09-03 19:25:38,1150796
2025-09-03 19:25:38,1150887
2025-09-03 19:25:38,1151059
2025-09-03 19:25:38,1151253
2025-09-03 19:25:38,1151435
2025-09-03 19:25:38,1151653
2025-09-03 19:25:38,1151744
2025-09-03 19:25:38,1151936
2025-09-03 19:25:38,1152128
2025-09-03 19:25:38,1152303
2025-09-03 19:25:38,1152403
2025-09-03 19:25:38,1152488
2025-09-03 19:25:38,1152620
2025-09-03 19:25:38,1152786
2025-09-03 19:25:38,1152956
2025-09-03 19:25:38,1153104
2025-09-03 19:25:38,1153138
2025-09-03 19:25:38,1153332
2025-09-03 19:25:38,1153496
2025-09-03 19:25:38,1153567
2025-09-03 19:25:38,1153706
2025-09-03 19:25:38,1153945
2025-09-03 19:25:38,1154176
2025-09-03 19:25:38,1154211
2025-09-03 19:25:38,1154405
2025-09-03 19:25:38,1154541
2025-09-03 19:25:38,1154649
2025-09-03 19:25:38,1154633
2025-09-03 19:25:38,1154210
2025-09-03 19:25:38,1153249
2025-09-03 19:25:38,1152218
2025-09-03 19:25:38,1151147
2025-09-03 19:25:38,1150248
2025-09-03 19:25:38,1149528
2025-09-03 19:25:38,1148910
2025-09-03 19:25:38,1148629
2025-09-03 19:25:38,1148410
2025-09-03 19:25:38,1148460
2025-09-03 19:25:38,1148438
2025-09-03 19:25:38,1148531
2025-09-03 19:25:38,1148577
2025-09-03 19:25:38,1148846
2025-09-03 19:25:38,1148860
2025-09-03 19:25:38,1148950
2025-09-03 19:25:38,1149084
2025-09-03 19:25:38,1149242
2025-09-03 19:25:38,1149420
2025-09-03 19:25:38,1149617
2025-09-03 19:25:38,1149841
2025-09-03 19:25:38,1149780
2025-09-03 19:25:38,1149830
2025-09-03 19:25:38,1149886
2025-09-03 19:25:38,1149789
2025-09-03 19:25:38,1149669
2025-09-03 19:25:38,1149566
2025-09-03 19:25:38,1149419
2025-09-03 19:25:38,1149358
2025-09-03 19:25:38,1149308
2025-09-03 19:25:38,1149370
2025-09-03 19:25:38,1149316
2025-09-03 19:25:38,1149379
2025-09-03 19:25:38,1149503
2025-09-03 19:25:38,1149534
2025-09-03 19:25:38,1149723
2025-09-03 19:25:38,1149969
2025-09-03 19:25:38,1150024
2025-09-03 19:25:38,1150300
2025-09-03 19:25:38,1150383
2025-09-03 19:25:38,1150655
2025-09-03 19:25:38,1150672
2025-09-03 19:25:38,1150958
2025-09-03 19:25:38,1151130
2025-09-03 19:25:38,1151320
2025-09-03 19:25:38,1151468
2025-09-03 19:25:38,1151548
2025-09-03 19:25:38,1151727
2025-09-03 19:25:39,1151921
2025-09-03 19:25:39,1152070
2025-09-03 19:25:39,1152278
2025-09-03 19:25:39,1152454
2025-09-03 19:25:39,1152570
2025-09-03 19:25:39,1152651
2025-09-03 19:25:39,1152839
2025-09-03 19:25:39,1152923
2025-09-03 19:25:39,1153076
2025-09-03 19:25:39,1153243
2025-09-03 19:25:39,1153296
2025-09-03 19:25:39,1153517
2025-09-03 19:25:39,1153681
2025-09-03 19:25:39,1153818
2025-09-03 19:25:39,1154083
2025-09-03 19:25:39,1154141
2025-09-03 19:25:39,1154340
2025-09-03 19:25:39,1154490
2025-09-03 19:25:39,1154647
2025-09-03 19:25:39,1154546
2025-09-03 19:25:39,1154156
2025-09-03 19:25:39,1153287
2025-09-03 19:25:39,1152210
2025-09-03 19:25:39,1151048
2025-09-03 19:25:39,1150221
2025-09-03 19:25:39,1149519
2025-09-03 19:25:39,1148999
2025-09-03 19:25:39,1148753
2025-09-03 19:25:39,1148614
2025-09-03 19:25:39,1148545
2025-09-03 19:25:39,1148627
2025-09-03 19:25:39,1148694
2025-09-03 19:25:39,1148792
2025-09-03 19:25:39,1148884
2025-09-03 19:25:39,1148987
2025-09-03 19:25:39,1149168
2025-09-03 19:25:39,1149460
2025-09-03 19:25:39,1149510
2025-09-03 19:25:39,1149738
2025-09-03 19:25:39,1150016
2025-09-03 19:25:39,1150150
2025-09-03 19:25:39,1150334
2025-09-03 19:25:39,1150353
2025-09-03 19:25:39,1150379
2025-09-03 19:25:39,1150323
2025-09-03 19:25:39,1150241
2025-09-03 19:25:39,1150201
2025-09-03 19:25:39,1150147
2025-09-03 19:25:39,1150068
2025-09-03 19:25:39,1150128
2025-09-03 19:25:39,1150132
2025-09-03 19:25:39,1150266
2025-09-03 19:25:39,1150315
2025-09-03 19:25:39,1150468
2025-09-03 19:25:39,1150538
2025-09-03 19:25:39,1150740
2025-09-03 19:25:39,1150879
2025-09-03 19:25:39,1151094
2025-09-03 19:25:39,1151274
2025-09-03 19:25:39,1151451
2025-09-03 19:25:39,1151693
2025-09-03 19:25:39,1151870
2025-09-03 19:25:39,1152067
2025-09-03 19:25:39,1152202
2025-09-03 19:25:39,1152374
2025-09-03 19:25:39,1152553
2025-09-03 19:25:39,1152844
2025-09-03 19:25:39,1152952
2025-09-03 19:25:39,1153105
2025-09-03 19:25:39,1153204
2025-09-03 19:25:39,1153404
2025-09-03 19:25:39,1153496
2025-09-03 19:25:39,1153731
2025-09-03 19:25:39,1153883
2025-09-03 19:25:39,1153922
2025-09-03 19:25:39,1154066
2025-09-03 19:25:39,1154222
2025-09-03 19:25:39,1154451
2025-09-03 19:25:39,1154626
2025-09-03 19:25:39,1154732
2025-09-03 19:25:39,1154885
2025-09-03 19:25:39,1155096
2025-09-03 19:25:39,1155202
2025-09-03 19:25:39,1155346
2025-09-03 19:25:39,1155561
2025-09-03 19:25:39,1155617
2025-09-03 19:25:39,1155524
2025-09-03 19:25:39,1154890
2025-09-03 19:25:39,1153840
2025-09-03 19:25:39,1152621
2025-09-03 19:25:39,1151501
2025-09-03 19:25:39,1150566
2025-09-03 19:25:39,1149910
2025-09-03 19:25:39,1149349
2025-09-03 19:25:39,1149060
2025-09-03 19:25:39,1148808
2025-09-03 19:25:39,1148817
2025-09-03 19:25:39,1148891
2025-09-03 19:25:39,1148908
2025-09-03 19:25:39,1148899
2025-09-03 19:25:40,1149032
2025-09-03 19:25:40,1149176
2025-09-03 19:25:40,1149272
2025-09-03 19:25:40,1149331
2025-09-03 19:25:40,1149404
2025-09-03 19:25:40,1149433
2025-09-03 19:25:40,1149757
2025-09-03 19:25:40,1149850
2025-09-03 19:25:40,1150046
2025-09-03 19:25:40,1150094
2025-09-03 19:25:40,1150069
2025-09-03 19:25:40,1150002
2025-09-03 19:25:40,1150031
2025-09-03 19:25:40,1149980
2025-09-03 19:25:40,1149819
2025-09-03 19:25:40,1149694
2025-09-03 19:25:40,1149706
2025-09-03 19:25:40,1149659
2025-09-03 19:25:40,1149812
2025-09-03 19:25:40,1149861
2025-09-03 19:25:40,1149964
2025-09-03 19:25:40,1149946
2025-09-03 19:25:40,1150211
2025-09-03 19:25:40,1150312
2025-09-03 19:25:40,1150596
2025-09-03 19:25:40,1150712
2025-09-03 19:25:40,1150918
2025-09-03 19:25:40,1151048
2025-09-03 19:25:40,1151228
2025-09-03 19:25:40,1151549
2025-09-03 19:25:40,1151730
2025-09-03 19:25:40,1151915
2025-09-03 19:25:40,1152056
2025-09-03 19:25:40,1152284
2025-09-03 19:25:40,1152391
2025-09-03 19:25:40,1152590
2025-09-03 19:25:40,1152718
2025-09-03 19:25:40,1152968
2025-09-03 19:25:40,1153024
2025-09-03 19:25:40,1153341
2025-09-03 19:25:40,1153420
2025-09-03 19:25:40,1153537
2025-09-03 19:25:40,1153745
2025-09-03 19:25:40,1153836
2025-09-03 19:25:40,1153974
2025-09-03 19:25:40,1154216
2025-09-03 19:25:40,1154325
2025-09-03 19:25:40,1154577
2025-09-03 19:25:40,1154678
2025-09-03 19:25:40,1154855
2025-09-03 19:25:40,1155159
2025-09-03 19:25:40,1155215
2025-09-03 19:25:40,1155454
2025-09-03 19:25:40,1155600
2025-09-03 19:25:40,1155481
2025-09-03 19:25:40,1154925
2025-09-03 19:25:40,1153999
2025-09-03 19:25:40,1152709
2025-09-03 19:25:40,1151591
2025-09-03 19:25:40,1150609
2025-09-03 19:25:40,1149836
2025-09-03 19:25:40,1149279
2025-09-03 19:25:40,1148809
2025-09-03 19:25:40,1148712
2025-09-03 19:25:40,1148654
2025-09-03 19:25:40,1148652
2025-09-03 19:25:40,1148626
2025-09-03 19:25:40,1148637
2025-09-03 19:25:40,1148706
2025-09-03 19:25:40,1148782
2025-09-03 19:25:40,1148835
2025-09-03 19:25:40,1148863
2025-09-03 19:25:40,1148906
2025-09-03 19:25:40,1148972
2025-09-03 19:25:40,1149193
2025-09-03 19:25:40,1149323
2025-09-03 19:25:40,1149492
2025-09-03 19:25:40,1149455
2025-09-03 19:25:40,1149490
2025-09-03 19:25:40,1149449
2025-09-03 19:25:40,1149454
2025-09-03 19:25:40,1149344
2025-09-03 19:25:40,1149279
2025-09-03 19:25:40,1149118
2025-09-03 19:25:40,1149104
2025-09-03 19:25:40,1149123
2025-09-03 19:25:40,1149083
2025-09-03 19:25:40,1149180
2025-09-03 19:25:40,1149275
2025-09-03 19:25:40,1149365
2025-09-03 19:25:40,1149465
2025-09-03 19:25:40,1149672
2025-09-03 19:25:40,1149862
2025-09-03 19:25:40,1150040
2025-09-03 19:25:40,1150330
2025-09-03 19:25:40,1150434
2025-09-03 19:25:40,1150688
2025-09-03 19:25:40,1150913
2025-09-03 19:25:40,1151095
2025-09-03 19:25:40,1151235
2025-09-03 19:25:40,1151422
2025-09-03 19:25:41,1151581
2025-09-03 19:25:41,1151773
2025-09-03 19:25:41,1152019
2025-09-03 19:25:41,1152173
2025-09-03 19:25:41,1152323
2025-09-03 19:25:41,1152401
2025-09-03 19:25:41,1152657
2025-09-03 19:25:41,1152780
2025-09-03 19:25:41,1152950
2025-09-03 19:25:41,1153089
2025-09-03 19:25:41,1153262
2025-09-03 19:25:41,1153403
2025-09-03 19:25:41,1153604
2025-09-03 19:25:41,1153643
2025-09-03 19:25:41,1153882
2025-09-03 19:25:41,1154029
2025-09-03 19:25:41,1154127
2025-09-03 19:25:41,1154335
2025-09-03 19:25:41,1154568
2025-09-03 19:25:41,1154763
2025-09-03 19:25:41,1154857
2025-09-03 19:25:41,1155058
2025-09-03 19:25:41,1155121
2025-09-03 19:25:41,1155246
2025-09-03 19:25:41,1154878
2025-09-03 19:25:41,1154163
2025-09-03 19:25:41,1153073
2025-09-03 19:25:41,1151839
2025-09-03 19:25:41,1150715
2025-09-03 19:25:41,1149921
2025-09-03 19:25:41,1149227
2025-09-03 19:25:41,1148741
2025-09-03 19:25:41,1148563
2025-09-03 19:25:41,1148366
2025-09-03 19:25:41,1148392
2025-09-03 19:25:41,1148370
2025-09-03 19:25:41,1148464
2025-09-03 19:25:41,1148570
2025-09-03 19:25:41,1148602
2025-09-03 19:25:41,1148695
2025-09-03 19:25:41,1148749
2025-09-03 19:25:41,1148824
2025-09-03 19:25:41,1149035
2025-09-03 19:25:41,1149242
2025-09-03 19:25:41,1149372
2025-09-03 19:25:41,1149494
2025-09-03 19:25:41,1149490
2025-09-03 19:25:41,1149581
2025-09-03 19:25:41,1149568
2025-09-03 19:25:41,1149427
2025-09-03 19:25:41,1149346
2025-09-03 19:25:41,1149231
2025-09-03 19:25:41,1149130
2025-09-03 19:25:41,1149117
2025-09-03 19:25:41,1148989
2025-09-03 19:25:41,1149070
2025-09-03 19:25:41,1149081
2025-09-03 19:25:41,1149187
2025-09-03 19:25:41,1149245
2025-09-03 19:25:41,1149441
2025-09-03 19:25:41,1149592
2025-09-03 19:25:41,1149703
2025-09-03 19:25:41,1149990
2025-09-03 19:25:41,1150114
2025-09-03 19:25:41,1150309
2025-09-03 19:25:41,1150474
2025-09-03 19:25:41,1150684
2025-09-03 19:25:41,1150783
2025-09-03 19:25:41,1151032
2025-09-03 19:25:41,1151347
2025-09-03 19:25:41,1151431
2025-09-03 19:25:41,1151636
2025-09-03 19:25:41,1151767
2025-09-03 19:25:41,1152003
2025-09-03 19:25:41,1152127
2025-09-03 19:25:41,1152242
2025-09-03 19:25:41,1152404
2025-09-03 19:25:41,1152656
2025-09-03 19:25:41,1152693
2025-09-03 19:25:41,1152887
2025-09-03 19:25:41,1153097
2025-09-03 19:25:41,1153157
2025-09-03 19:25:41,1153387
2025-09-03 19:25:41,1153548
2025-09-03 19:25:41,1153717
2025-09-03 19:25:41,1153943
2025-09-03 19:25:41,1154096
2025-09-03 19:25:41,1154379
2025-09-03 19:25:41,1154480
2025-09-03 19:25:41,1154752
2025-09-03 19:25:41,1154991
2025-09-03 19:25:41,1155160
2025-09-03 19:25:41,1155388
2025-09-03 19:25:41,1155579
2025-09-03 19:25:41,1155790
2025-09-03 19:25:41,1155832
2025-09-03 19:25:41,1155662
2025-09-03 19:25:41,1154881
2025-09-03 19:25:41,1153690
2025-09-03 19:25:42,1152497
2025-09-03 19:25:42,1151442
2025-09-03 19:25:42,1150540
2025-09-03 19:25:42,1149950
2025-09-03 19:25:42,1149535
2025-09-03 19:25:42,1149376
2025-09-03 19:25:42,1149233
2025-09-03 19:25:42,1149321
2025-09-03 19:25:42,1149413
2025-09-03 19:25:42,1149517
2025-09-03 19:25:42,1149653
2025-09-03 19:25:42,1149756
2025-09-03 19:25:42,1149963
2025-09-03 19:25:42,1150026
2025-09-03 19:25:42,1150129
2025-09-03 19:25:42,1150342
2025-09-03 19:25:42,1150541
2025-09-03 19:25:42,1150725
2025-09-03 19:25:42,1150873
2025-09-03 19:25:42,1150805
2025-09-03 19:25:42,1150886
2025-09-03 19:25:42,1150903
2025-09-03 19:25:42,1150790
2025-09-03 19:25:42,1150670
2025-09-03 19:25:42,1150478
2025-09-03 19:25:42,1150376
2025-09-03 19:25:42,1150309
2025-09-03 19:25:42,1150303
2025-09-03 19:25:42,1150291
2025-09-03 19:25:42,1150209
2025-09-03 19:25:42,1150327
2025-09-03 19:25:42,1150395
2025-09-03 19:25:42,1150525
2025-09-03 19:25:42,1150654
2025-09-03 19:25:42,1150851
2025-09-03 19:25:42,1151146
2025-09-03 19:25:42,1151244
2025-09-03 19:25:42,1151445
2025-09-03 19:25:42,1151558
2025-09-03 19:25:42,1151760
2025-09-03 19:25:42,1151947
2025-09-03 19:25:42,1152152
2025-09-03 19:25:42,1152300
2025-09-03 19:25:42,1152437
2025-09-03 19:25:42,1152665
2025-09-03 19:25:42,1152896
2025-09-03 19:25:42,1152935
2025-09-03 19:25:42,1153155
2025-09-03 19:25:42,1153305
2025-09-03 19:25:42,1153498
2025-09-03 19:25:42,1153661
2025-09-03 19:25:42,1153788
2025-09-03 19:25:42,1153867
2025-09-03 19:25:42,1154047
2025-09-03 19:25:42,1154239
2025-09-03 19:25:42,1154375
2025-09-03 19:25:42,1154366
2025-09-03 19:25:42,1154579
2025-09-03 19:25:42,1154744
2025-09-03 19:25:42,1154897
2025-09-03 19:25:42,1155148
2025-09-03 19:25:42,1155235
2025-09-03 19:25:42,1155440
2025-09-03 19:25:42,1155615
2025-09-03 19:25:42,1155930
2025-09-03 19:25:42,1156065
2025-09-03 19:25:42,1156200
2025-09-03 19:25:42,1156342
2025-09-03 19:25:42,1156264
2025-09-03 19:25:42,1155826
2025-09-03 19:25:42,1154810
2025-09-03 19:25:42,1153643
2025-09-03 19:25:42,1152517
2025-09-03 19:25:42,1151590
2025-09-03 19:25:42,1150906
2025-09-03 19:25:42,1150472
2025-09-03 19:25:42,1150215
2025-09-03 19:25:42,1150078
2025-09-03 19:25:42,1150172
2025-09-03 19:25:42,1150160
2025-09-03 19:25:42,1150293
2025-09-03 19:25:42,1150391
2025-09-03 19:25:42,1150579
2025-09-03 19:25:42,1150780
2025-09-03 19:25:42,1150965
2025-09-03 19:25:42,1151199
2025-09-03 19:25:42,1151404
2025-09-03 19:25:42,1151594
2025-09-03 19:25:42,1151885
2025-09-03 19:25:42,1151952
2025-09-03 19:25:42,1152127
2025-09-03 19:25:42,1152116
2025-09-03 19:25:42,1152182
2025-09-03 19:25:42,1152007
2025-09-03 19:25:42,1151932
2025-09-03 19:25:42,1151869
2025-09-03 19:25:42,1151665
2025-09-03 19:25:42,1151652
2025-09-03 19:25:42,1151625
2025-09-03 19:25:42,1151697
2025-09-03 19:25:42,1151655
2025-09-03 19:25:43,1151808
2025-09-03 19:25:43,1151923
2025-09-03 19:25:43,1152099
2025-09-03 19:25:43,1152227
2025-09-03 19:25:43,1152359
2025-09-03 19:25:43,1152578
2025-09-03 19:25:43,1152743
2025-09-03 19:25:43,1152941
2025-09-03 19:25:43,1153170
2025-09-03 19:25:43,1153343
2025-09-03 19:25:43,1153442
2025-09-03 19:25:43,1153751
2025-09-03 19:25:43,1153937
2025-09-03 19:25:43,1154150
2025-09-03 19:25:43,1154358
2025-09-03 19:25:43,1154522
2025-09-03 19:25:43,1154749
2025-09-03 19:25:43,1154864
2025-09-03 19:25:43,1155043
2025-09-03 19:25:43,1155196
2025-09-03 19:25:43,1155407
2025-09-03 19:25:43,1155587
2025-09-03 19:25:43,1155668
2025-09-03 19:25:43,1155814
2025-09-03 19:25:43,1155992
2025-09-03 19:25:43,1156184
2025-09-03 19:25:43,1156302
2025-09-03 19:25:43,1156552
2025-09-03 19:25:43,1156715
2025-09-03 19:25:43,1156870
2025-09-03 19:25:43,1157120
2025-09-03 19:25:43,1157272
2025-09-03 19:25:43,1157383
2025-09-03 19:25:43,1157643
2025-09-03 19:25:43,1157778
2025-09-03 19:25:43,1157917
2025-09-03 19:25:43,1157976
2025-09-03 19:25:43,1157620
2025-09-03 19:25:43,1156793
2025-09-03 19:25:43,1155624
2025-09-03 19:25:43,1154422
2025-09-03 19:25:43,1153406
2025-09-03 19:25:43,1152472
2025-09-03 19:25:43,1151891
2025-09-03 19:25:43,1151478
2025-09-03 19:25:43,1151386
2025-09-03 19:25:43,1151262
2025-09-03 19:25:43,1151218
2025-09-03 19:25:43,1151282
2025-09-03 19:25:43,1151429
2025-09-03 19:25:43,1151584
2025-09-03 19:25:43,1151626
2025-09-03 19:25:43,1151763
2025-09-03 19:25:43,1151941
2025-09-03 19:25:43,1152035
2025-09-03 19:25:43,1152148
2025-09-03 19:25:43,1152394
2025-09-03 19:25:43,1152580
2025-09-03 19:25:43,1152618
2025-09-03 19:25:43,1152761
2025-09-03 19:25:43,1152797
2025-09-03 19:25:43,1152735
2025-09-03 19:25:43,1152691
2025-09-03 19:25:43,1152482
2025-09-03 19:25:43,1152498
2025-09-03 19:25:43,1152340
2025-09-03 19:25:43,1152261
2025-09-03 19:25:43,1152194
2025-09-03 19:25:43,1152280
2025-09-03 19:25:43,1152374
2025-09-03 19:25:43,1152347
2025-09-03 19:25:43,1152526
2025-09-03 19:25:43,1152597
2025-09-03 19:25:43,1152728
2025-09-03 19:25:43,1152783
2025-09-03 19:25:43,1153053
2025-09-03 19:25:43,1153219
2025-09-03 19:25:43,1153431
2025-09-03 19:25:43,1153734
2025-09-03 19:25:43,1153855
2025-09-03 19:25:43,1154147
2025-09-03 19:25:43,1154218
2025-09-03 19:25:43,1154393
2025-09-03 19:25:43,1154562
2025-09-03 19:25:43,1154763
2025-09-03 19:25:43,1154890
2025-09-03 19:25:43,1155131
2025-09-03 19:25:43,1155292
2025-09-03 19:25:43,1155401
2025-09-03 19:25:43,1155587
2025-09-03 19:25:43,1155783
2025-09-03 19:25:43,1155925
2025-09-03 19:25:43,1156101
2025-09-03 19:25:43,1156298
2025-09-03 19:25:43,1156380
2025-09-03 19:25:43,1156508
2025-09-03 19:25:43,1156647
2025-09-03 19:25:43,1156847
2025-09-03 19:25:43,1157067
2025-09-03 19:25:43,1157202
2025-09-03 19:25:44,1157339
2025-09-03 19:25:44,1157578
2025-09-03 19:25:44,1157623
2025-09-03 19:25:44,1157919
2025-09-03 19:25:44,1157996
2025-09-03 19:25:44,1158025
2025-09-03 19:25:44,1157725
2025-09-03 19:25:44,1156996
2025-09-03 19:25:44,1155739
2025-09-03 19:25:44,1154545
2025-09-03 19:25:44,1153281
2025-09-03 19:25:44,1152297
2025-09-03 19:25:44,1151573
2025-09-03 19:25:44,1151169
2025-09-03 19:25:44,1150842
2025-09-03 19:25:44,1150585
2025-09-03 19:25:44,1150578
2025-09-03 19:25:44,1150660
2025-09-03 19:25:44,1150705
2025-09-03 19:25:44,1150753
2025-09-03 19:25:44,1150794
2025-09-03 19:25:44,1150873
2025-09-03 19:25:44,1150942
2025-09-03 19:25:44,1150992
2025-09-03 19:25:44,1151084
2025-09-03 19:25:44,1151156
2025-09-03 19:25:44,1151302
2025-09-03 19:25:44,1151481
2025-09-03 19:25:44,1151518
2025-09-03 19:25:44,1151545
2025-09-03 19:25:44,1151634
2025-09-03 19:25:44,1151539
2025-09-03 19:25:44,1151431
2025-09-03 19:25:44,1151318
2025-09-03 19:25:44,1151186
2025-09-03 19:25:44,1151010
2025-09-03 19:25:44,1150950
2025-09-03 19:25:44,1151002
2025-09-03 19:25:44,1150937
2025-09-03 19:25:44,1151045
2025-09-03 19:25:44,1151154
2025-09-03 19:25:44,1151272
2025-09-03 19:25:44,1151341
2025-09-03 19:25:44,1151468
2025-09-03 19:25:44,1151680
2025-09-03 19:25:44,1151827
2025-09-03 19:25:44,1152025
2025-09-03 19:25:44,1152160
2025-09-03 19:25:44,1152341
2025-09-03 19:25:44,1152528
2025-09-03 19:25:44,1152666
2025-09-03 19:25:44,1152952
2025-09-03 19:25:44,1153057
2025-09-03 19:25:44,1153279
2025-09-03 19:25:44,1153399
2025-09-03 19:25:44,1153610
2025-09-03 19:25:44,1153798
2025-09-03 19:25:44,1153948
2025-09-03 19:25:44,1154091
2025-09-03 19:25:44,1154243
2025-09-03 19:25:44,1154414
2025-09-03 19:25:44,1154529
2025-09-03 19:25:44,1154635
2025-09-03 19:25:44,1154738
2025-09-03 19:25:44,1154938
2025-09-03 19:25:44,1155141
2025-09-03 19:25:44,1155210
2025-09-03 19:25:44,1155380
2025-09-03 19:25:44,1155643
2025-09-03 19:25:44,1155767
2025-09-03 19:25:44,1155847
2025-09-03 19:25:44,1156013
2025-09-03 19:25:44,1156276
2025-09-03 19:25:44,1156405
2025-09-03 19:25:44,1156585
2025-09-03 19:25:44,1156766
2025-09-03 19:25:44,1156820
2025-09-03 19:25:44,1156655
2025-09-03 19:25:44,1156155
2025-09-03 19:25:44,1155069
2025-09-03 19:25:44,1153773
2025-09-03 19:25:44,1152492
2025-09-03 19:25:44,1151432
2025-09-03 19:25:44,1150607
2025-09-03 19:25:44,1150059
2025-09-03 19:25:44,1149635
2025-09-03 19:25:44,1149525
2025-09-03 19:25:44,1149289
2025-09-03 19:25:44,1149375
2025-09-03 19:25:44,1149422
2025-09-03 19:25:44,1149392
2025-09-03 19:25:44,1149489
2025-09-03 19:25:44,1149684
2025-09-03 19:25:44,1149698
2025-09-03 19:25:44,1149691
2025-09-03 19:25:44,1149762
2025-09-03 19:25:44,1149988
2025-09-03 19:25:44,1150054
2025-09-03 19:25:44,1150141
2025-09-03 19:25:44,1150231
2025-09-03 19:25:45,1150253
2025-09-03 19:25:45,1150262
2025-09-03 19:25:45,1150220
2025-09-03 19:25:45,1150052
2025-09-03 19:25:45,1150026
2025-09-03 19:25:45,1149945
2025-09-03 19:25:45,1149783
2025-09-03 19:25:45,1149672
2025-09-03 19:25:45,1149757
2025-09-03 19:25:45,1149718
2025-09-03 19:25:45,1149761
2025-09-03 19:25:45,1149923
2025-09-03 19:25:45,1149937
2025-09-03 19:25:45,1150027
2025-09-03 19:25:45,1150201
2025-09-03 19:25:45,1150332
2025-09-03 19:25:45,1150605
2025-09-03 19:25:45,1150688
2025-09-03 19:25:45,1150854
2025-09-03 19:25:45,1151092
2025-09-03 19:25:45,1151287
2025-09-03 19:25:45,1151478
2025-09-03 19:25:45,1151576
2025-09-03 19:25:45,1151753
2025-09-03 19:25:45,1151950
2025-09-03 19:25:45,1152147
2025-09-03 19:25:45,1152313
2025-09-03 19:25:45,1152424
2025-09-03 19:25:45,1152533
2025-09-03 19:25:45,1152723
2025-09-03 19:25:45,1152891
2025-09-03 19:25:45,1152900
2025-09-03 19:25:45,1153186
2025-09-03 19:25:45,1153243
2025-09-03 19:25:45,1153441
2025-09-03 19:25:45,1153535
2025-09-03 19:25:45,1153697
2025-09-03 19:25:45,1153791
2025-09-03 19:25:45,1154029
2025-09-03 19:25:45,1154157
2025-09-03 19:25:45,1154313
2025-09-03 19:25:45,1154505
2025-09-03 19:25:45,1154700
2025-09-03 19:25:45,1154898
2025-09-03 19:25:45,1155060
2025-09-03 19:25:45,1155253
2025-09-03 19:25:45,1155218
2025-09-03 19:25:45,1155481
2025-09-03 19:25:45,1155646
2025-09-03 19:25:45,1155285
2025-09-03 19:25:45,1154642
2025-09-03 19:25:45,1153507
2025-09-03 19:25:45,1152258
2025-09-03 19:25:45,1151115
2025-09-03 19:25:45,1150179
2025-09-03 19:25:45,1149405
2025-09-03 19:25:45,1149040
2025-09-03 19:25:45,1148645
2025-09-03 19:25:45,1148552
2025-09-03 19:25:45,1148517
2025-09-03 19:25:45,1148485
2025-09-03 19:25:45,1148561
2025-09-03 19:25:45,1148671
2025-09-03 19:25:45,1148710
2025-09-03 19:25:45,1148800
2025-09-03 19:25:45,1148876
2025-09-03 19:25:45,1148974
2025-09-03 19:25:45,1149053
2025-09-03 19:25:45,1149227
2025-09-03 19:25:45,1149350
2025-09-03 19:25:45,1149509
2025-09-03 19:25:45,1149562
2025-09-03 19:25:45,1149585
2025-09-03 19:25:45,1149541
2025-09-03 19:25:45,1149564
2025-09-03 19:25:45,1149400
2025-09-03 19:25:45,1149325
2025-09-03 19:25:45,1149207
2025-09-03 19:25:45,1149090
2025-09-03 19:25:45,1149062
2025-09-03 19:25:45,1149049
2025-09-03 19:25:45,1148994
2025-09-03 19:25:45,1149084
2025-09-03 19:25:45,1149218
2025-09-03 19:25:45,1149270
2025-09-03 19:25:45,1149371
2025-09-03 19:25:45,1149579
2025-09-03 19:25:45,1149725
2025-09-03 19:25:45,1149899
2025-09-03 19:25:45,1150136
2025-09-03 19:25:45,1150289
2025-09-03 19:25:45,1150449
2025-09-03 19:25:45,1150635
2025-09-03 19:25:45,1150775
2025-09-03 19:25:45,1150950
2025-09-03 19:25:45,1151187
2025-09-03 19:25:45,1151341
2025-09-03 19:25:45,1151510
2025-09-03 19:25:45,1151648
2025-09-03 19:25:45,1151795
2025-09-03 19:25:45,1151983
2025-09-03 19:25:46,1152108
2025-09-03 19:25:46,1152188
2025-09-03 19:25:46,1152304
2025-09-03 19:25:46,1152509
2025-09-03 19:25:46,1152579
2025-09-03 19:25:46,1152778
2025-09-03 19:25:46,1152886
2025-09-03 19:25:46,1152982
2025-09-03 19:25:46,1153157
2025-09-03 19:25:46,1153286
2025-09-03 19:25:46,1153545
2025-09-03 19:25:46,1153563
2025-09-03 19:25:46,1153759
2025-09-03 19:25:46,1153975
2025-09-03 19:25:46,1154140
2025-09-03 19:25:46,1154315
2025-09-03 19:25:46,1154431
2025-09-03 19:25:46,1154617
2025-09-03 19:25:46,1154760
2025-09-03 19:25:46,1154582
2025-09-03 19:25:46,1154127
2025-09-03 19:25:46,1153054
2025-09-03 19:25:46,1151918
2025-09-03 19:25:46,1150791
2025-09-03 19:25:46,1149767
2025-09-03 19:25:46,1149008
2025-09-03 19:25:46,1148560
2025-09-03 19:25:46,1148153
2025-09-03 19:25:46,1148014
2025-09-03 19:25:46,1147925
2025-09-03 19:25:46,1148053
2025-09-03 19:25:46,1148105
2025-09-03 19:25:46,1148158
2025-09-03 19:25:46,1148292
2025-09-03 19:25:46,1148403
2025-09-03 19:25:46,1148473
2025-09-03 19:25:46,1148611
2025-09-03 19:25:46,1148723
2025-09-03 19:25:46,1148786
2025-09-03 19:25:46,1149013
2025-09-03 19:25:46,1149131
2025-09-03 19:25:46,1149221
2025-09-03 19:25:46,1149324
2025-09-03 19:25:46,1149225
2025-09-03 19:25:46,1149156
2025-09-03 19:25:46,1149067
2025-09-03 19:25:46,1148989
2025-09-03 19:25:46,1148861
2025-09-03 19:25:46,1148790
2025-09-03 19:25:46,1148663
2025-09-03 19:25:46,1148659
2025-09-03 19:25:46,1148779
2025-09-03 19:25:46,1148776
2025-09-03 19:25:46,1148879
2025-09-03 19:25:46,1148925
2025-09-03 19:25:46,1149083
2025-09-03 19:25:46,1149257
2025-09-03 19:25:46,1149349
2025-09-03 19:25:46,1149623
2025-09-03 19:25:46,1149768
2025-09-03 19:25:46,1149923
2025-09-03 19:25:46,1150083
2025-09-03 19:25:46,1150208
2025-09-03 19:25:46,1150333
2025-09-03 19:25:46,1150519
2025-09-03 19:25:46,1150763
2025-09-03 19:25:46,1150890
2025-09-03 19:25:46,1151111
2025-09-03 19:25:46,1151140
2025-09-03 19:25:46,1151308
2025-09-03 19:25:46,1151522
2025-09-03 19:25:46,1151643
2025-09-03 19:25:46,1151782
2025-09-03 19:25:46,1151942
2025-09-03 19:25:46,1151982
2025-09-03 19:25:46,1152116
2025-09-03 19:25:46,1152233
2025-09-03 19:25:46,1152318
2025-09-03 19:25:46,1152499
2025-09-03 19:25:46,1152597
2025-09-03 19:25:46,1152829
2025-09-03 19:25:46,1152943
2025-09-03 19:25:46,1153145
2025-09-03 19:25:46,1153356
2025-09-03 19:25:46,1153513
2025-09-03 19:25:46,1153674
2025-09-03 19:25:46,1153759
2025-09-03 19:25:46,1153950
2025-09-03 19:25:46,1154076
2025-09-03 19:25:46,1153814
2025-09-03 19:25:46,1153182
2025-09-03 19:25:46,1152076
2025-09-03 19:25:46,1150966
2025-09-03 19:25:46,1149965
2025-09-03 19:25:46,1149053
2025-09-03 19:25:46,1148440
2025-09-03 19:25:46,1148025
2025-09-03 19:25:46,1147809
2025-09-03 19:25:46,1147676
2025-09-03 19:25:46,1147626
2025-09-03 19:25:47,1147733
2025-09-03 19:25:47,1147819
2025-09-03 19:25:47,1147929
2025-09-03 19:25:47,1148003
2025-09-03 19:25:47,1148097
2025-09-03 19:25:47,1148298
2025-09-03 19:25:47,1148362
2025-09-03 19:25:47,1148549
2025-09-03 19:25:47,1148724
2025-09-03 19:25:47,1148881
2025-09-03 19:25:47,1149063
2025-09-03 19:25:47,1149156
2025-09-03 19:25:47,1149152
2025-09-03 19:25:47,1149023
2025-09-03 19:25:47,1149017
2025-09-03 19:25:47,1148972
2025-09-03 19:25:47,1148904
2025-09-03 19:25:47,1148702
2025-09-03 19:25:47,1148611
2025-09-03 19:25:47,1148656
2025-09-03 19:25:47,1148648
2025-09-03 19:25:47,1148677
2025-09-03 19:25:47,1148728
2025-09-03 19:25:47,1148902
2025-09-03 19:25:47,1148908
2025-09-03 19:25:47,1149117
2025-09-03 19:25:47,1149295
2025-09-03 19:25:47,1149425
2025-09-03 19:25:47,1149582
2025-09-03 19:25:47,1149826
2025-09-03 19:25:47,1149957
2025-09-03 19:25:47,1150183
2025-09-03 19:25:47,1150339
2025-09-03 19:25:47,1150522
2025-09-03 19:25:47,1150754
2025-09-03 19:25:47,1150930
2025-09-03 19:25:47,1151083
2025-09-03 19:25:47,1151238
2025-09-03 19:25:47,1151486
2025-09-03 19:25:47,1151554
2025-09-03 19:25:47,1151751
2025-09-03 19:25:47,1151772
2025-09-03 19:25:47,1151963
2025-09-03 19:25:47,1152084
2025-09-03 19:25:47,1152281
2025-09-03 19:25:47,1152376
2025-09-03 19:25:47,1152627
2025-09-03 19:25:47,1152705
2025-09-03 19:25:47,1152849
2025-09-03 19:25:47,1152999
2025-09-03 19:25:47,1153139
2025-09-03 19:25:47,1153296
2025-09-03 19:25:47,1153473
2025-09-03 19:25:47,1153692
2025-09-03 19:25:47,1153868
2025-09-03 19:25:47,1153925
2025-09-03 19:25:47,1153831
2025-09-03 19:25:47,1153467
2025-09-03 19:25:47,1152522
2025-09-03 19:25:47,1151385
2025-09-03 19:25:47,1150131
2025-09-03 19:25:47,1149096
2025-09-03 19:25:47,1148197
2025-09-03 19:25:47,1147674
2025-09-03 19:25:47,1147193
2025-09-03 19:25:47,1146903
2025-09-03 19:25:47,1146845
2025-09-03 19:25:47,1146726
2025-09-03 19:25:47,1146798
2025-09-03 19:25:47,1146815
2025-09-03 19:25:47,1146878
2025-09-03 19:25:47,1146908
2025-09-03 19:25:47,1146972
2025-09-03 19:25:47,1146959
2025-09-03 19:25:47,1147054
2025-09-03 19:25:47,1147045
2025-09-03 19:25:47,1147211
2025-09-03 19:25:47,1147362
2025-09-03 19:25:47,1147399
2025-09-03 19:25:47,1147364
2025-09-03 19:25:47,1147424
2025-09-03 19:25:47,1147433
2025-09-03 19:25:47,1147414
2025-09-03 19:25:47,1147290
2025-09-03 19:25:47,1147140
2025-09-03 19:25:47,1147136
2025-09-03 19:25:47,1146976
2025-09-03 19:25:47,1146968
2025-09-03 19:25:47,1146946
2025-09-03 19:25:47,1146942
2025-09-03 19:25:47,1146993
2025-09-03 19:25:47,1147097
2025-09-03 19:25:47,1147177
2025-09-03 19:25:47,1147302
2025-09-03 19:25:47,1147485
2025-09-03 19:25:47,1147643
2025-09-03 19:25:47,1147795
2025-09-03 19:25:47,1147990
2025-09-03 19:25:47,1148135
2025-09-03 19:25:48,1148301
2025-09-03 19:25:48,1148448
2025-09-03 19:25:48,1148595
2025-09-03 19:25:48,1148744
2025-09-03 19:25:48,1148997
2025-09-03 19:25:48,1149119
2025-09-03 19:25:48,1149247
2025-09-03 19:25:48,1149362
2025-09-03 19:25:48,1149547
2025-09-03 19:25:48,1149679
2025-09-03 19:25:48,1149838
2025-09-03 19:25:48,1149898
2025-09-03 19:25:48,1150105
2025-09-03 19:25:48,1150197
2025-09-03 19:25:48,1150334
2025-09-03 19:25:48,1150426
2025-09-03 19:25:48,1150602
2025-09-03 19:25:48,1150724
2025-09-03 19:25:48,1150876
2025-09-03 19:25:48,1151036
2025-09-03 19:25:48,1151212
2025-09-03 19:25:48,1151347
2025-09-03 19:25:48,1151523
2025-09-03 19:25:48,1151625
2025-09-03 19:25:48,1151784
2025-09-03 19:25:48,1151654
2025-09-03 19:25:48,1151212
2025-09-03 19:25:48,1150235
2025-09-03 19:25:48,1149060
2025-09-03 19:25:48,1147839
2025-09-03 19:25:48,1146828
2025-09-03 19:25:48,1146083
2025-09-03 19:25:48,1145482
2025-09-03 19:25:48,1145157
2025-09-03 19:25:48,1144863
2025-09-03 19:25:48,1144722
2025-09-03 19:25:48,1144720
2025-09-03 19:25:48,1144538
2025-09-03 19:25:48,1144619
2025-09-03 19:25:48,1144612
2025-09-03 19:25:48,1144682
2025-09-03 19:25:48,1144650
2025-09-03 19:25:48,1144616
2025-09-03 19:25:48,1144627
2025-09-03 19:25:48,1144715
2025-09-03 19:25:48,1144816
2025-09-03 19:25:48,1144786
2025-09-03 19:25:48,1144908
2025-09-03 19:25:48,1144937
2025-09-03 19:25:48,1144934
2025-09-03 19:25:48,1144925
2025-09-03 19:25:48,1144871
2025-09-03 19:25:48,1144714
2025-09-03 19:25:48,1144685
2025-09-03 19:25:48,1144505
2025-09-03 19:25:48,1144451
2025-09-03 19:25:48,1144410
2025-09-03 19:25:48,1144354
2025-09-03 19:25:48,1144422
2025-09-03 19:25:48,1144483
2025-09-03 19:25:48,1144586
2025-09-03 19:25:48,1144625
2025-09-03 19:25:48,1144734
2025-09-03 19:25:48,1144906
2025-09-03 19:25:48,1145089
2025-09-03 19:25:48,1145214
2025-09-03 19:25:48,1145363
2025-09-03 19:25:48,1145538
2025-09-03 19:25:48,1145691
2025-09-03 19:25:48,1145838
2025-09-03 19:25:48,1146018
2025-09-03 19:25:48,1146144
2025-09-03 19:25:48,1146295
2025-09-03 19:25:48,1146453
2025-09-03 19:25:48,1146601
2025-09-03 19:25:48,1146780
2025-09-03 19:25:48,1146916
2025-09-03 19:25:48,1147014
2025-09-03 19:25:48,1147053
2025-09-03 19:25:48,1147208
2025-09-03 19:25:48,1147354
2025-09-03 19:25:48,1147522
2025-09-03 19:25:48,1147541
2025-09-03 19:25:48,1147626
2025-09-03 19:25:48,1147853
2025-09-03 19:25:48,1148009
2025-09-03 19:25:48,1148054
2025-09-03 19:25:48,1148271
2025-09-03 19:25:48,1148434
2025-09-03 19:25:48,1148570
2025-09-03 19:25:48,1148814
2025-09-03 19:25:48,1148931
2025-09-03 19:25:48,1149139
2025-09-03 19:25:48,1149227
2025-09-03 19:25:48,1149356
2025-09-03 19:25:48,1149402
2025-09-03 19:25:48,1148805
2025-09-03 19:25:48,1147870
2025-09-03 19:25:48,1146747
2025-09-03 19:25:48,1145550
2025-09-03 19:25:48,1144630
2025-09-03 19:25:49,1143843
2025-09-03 19:25:49,1143304
2025-09-03 19:25:49,1142883
2025-09-03 19:25:49,1142700
2025-09-03 19:25:49,1142606
2025-09-03 19:25:49,1142530
2025-09-03 19:25:49,1142487
2025-09-03 19:25:49,1142550
2025-09-03 19:25:49,1142528
2025-09-03 19:25:37,1142509
2025-09-03 19:25:49,1142622
2025-09-03 19:25:49,1142609
2025-09-03 19:25:49,1142637
2025-09-03 19:25:49,1142688
2025-09-03 19:25:49,1142913
2025-09-03 19:25:49,1142962
2025-09-03 19:25:49,1143019
2025-09-03 19:25:49,1143053
2025-09-03 19:25:49,1143115
2025-09-03 19:25:49,1143024
2025-09-03 19:25:49,1142909
2025-09-03 19:25:49,1142772
2025-09-03 19:25:49,1142679
2025-09-03 19:25:49,1142637
2025-09-03 19:25:49,1142455
2025-09-03 19:25:49,1142436
2025-09-03 19:25:49,1142467
2025-09-03 19:25:49,1142563
2025-09-03 19:25:49,1142573
2025-09-03 19:25:49,1142701
2025-09-03 19:25:49,1142773
2025-09-03 19:25:49,1143017
2025-09-03 19:25:49,1143038
2025-09-03 19:25:49,1143265
2025-09-03 19:25:49,1143429
2025-09-03 19:25:49,1143552
2025-09-03 19:25:49,1143652
2025-09-03 19:25:49,1143910
2025-09-03 19:25:49,1144056
2025-09-03 19:25:49,1144222
2025-09-03 19:25:49,1144401
2025-09-03 19:25:49,1144502
2025-09-03 19:25:49,1144705
2025-09-03 19:25:49,1144934
2025-09-03 19:25:49,1145012
2025-09-03 19:25:49,1145087
2025-09-03 19:25:49,1145258
2025-09-03 19:25:49,1145409
2025-09-03 19:25:49,1145495
2025-09-03 19:25:49,1145624
2025-09-03 19:25:49,1145826
2025-09-03 19:25:49,1145832
2025-09-03 19:25:49,1145985
2025-09-03 19:25:49,1146223
2025-09-03 19:25:49,1146316
2025-09-03 19:25:49,1146444
2025-09-03 19:25:49,1146512
2025-09-03 19:25:49,1146777
2025-09-03 19:25:49,1146988
2025-09-03 19:25:49,1147161
2025-09-03 19:25:49,1147291
2025-09-03 19:25:49,1147546
2025-09-03 19:25:49,1147683
2025-09-03 19:25:49,1147859
2025-09-03 19:25:49,1147920
2025-09-03 19:25:49,1147946
2025-09-03 19:25:49,1147490
2025-09-03 19:25:49,1146528
2025-09-03 19:25:49,1145376
2025-09-03 19:25:49,1144250
2025-09-03 19:25:49,1143339
2025-09-03 19:25:49,1142613
2025-09-03 19:25:49,1142071
2025-09-03 19:25:49,1141712
2025-09-03 19:25:49,1141456
2025-09-03 19:25:49,1141422
2025-09-03 19:25:49,1141354
2025-09-03 19:25:49,1141340
2025-09-03 19:25:49,1141450
2025-09-03 19:25:49,1141432
2025-09-03 19:25:49,1141644
2025-09-03 19:25:49,1141643
2025-09-03 19:25:49,1141660
2025-09-03 19:25:49,1141834
2025-09-03 19:25:49,1141942
2025-09-03 19:25:49,1142037
2025-09-03 19:25:49,1142083
2025-09-03 19:25:49,1142230
2025-09-03 19:25:49,1142268
2025-09-03 19:25:49,1142253
2025-09-03 19:25:49,1142215
2025-09-03 19:25:49,1142129
2025-09-03 19:25:49,1141980
2025-09-03 19:25:49,1141953
2025-09-03 19:25:49,1141801
2025-09-03 19:25:49,1141742
2025-09-03 19:25:49,1141789
2025-09-03 19:25:49,1141815
2025-09-03 19:25:49,1141890
2025-09-03 19:25:49,1141918
2025-09-03 19:25:50,1142079
2025-09-03 19:25:50,1142149
2025-09-03 19:25:50,1142326
2025-09-03 19:25:50,1142494
2025-09-03 19:25:50,1142686
2025-09-03 19:25:50,1142857
2025-09-03 19:25:50,1142999
2025-09-03 19:25:50,1143189
2025-09-03 19:25:50,1143415
2025-09-03 19:25:50,1143583
2025-09-03 19:25:50,1143786
2025-09-03 19:25:50,1143934
2025-09-03 19:25:50,1143988
2025-09-03 19:25:50,1144303
2025-09-03 19:25:50,1144463
2025-09-03 19:25:50,1144556
2025-09-03 19:25:50,1144804
2025-09-03 19:25:50,1144848
2025-09-03 19:25:50,1144963
2025-09-03 19:25:50,1145086
2025-09-03 19:25:50,1145334
2025-09-03 19:25:50,1145348
2025-09-03 19:25:50,1145546
2025-09-03 19:25:50,1145678
2025-09-03 19:25:50,1145845
2025-09-03 19:25:50,1146048
2025-09-03 19:25:50,1146106
2025-09-03 19:25:50,1146311
2025-09-03 19:25:50,1146602
2025-09-03 19:25:50,1146624
2025-09-03 19:25:50,1146818
2025-09-03 19:25:50,1147035
2025-09-03 19:25:50,1147232
2025-09-03 19:25:50,1147355
2025-09-03 19:25:50,1147674
2025-09-03 19:25:50,1147789
2025-09-03 19:25:50,1147803
2025-09-03 19:25:50,1147645
2025-09-03 19:25:50,1146944
2025-09-03 19:25:50,1145883
2025-09-03 19:25:50,1144824
2025-09-03 19:25:50,1143833
2025-09-03 19:25:50,1143004
2025-09-03 19:25:50,1142330
2025-09-03 19:25:50,1141966
2025-09-03 19:25:50,1141674
2025-09-03 19:25:50,1141577
2025-09-03 19:25:50,1141667
2025-09-03 19:25:50,1141700
2025-09-03 19:25:50,1141750
2025-09-03 19:25:50,1141872
2025-09-03 19:25:50,1142066
2025-09-03 19:25:50,1142093
2025-09-03 19:25:50,1142254
2025-09-03 19:25:50,1142408
2025-09-03 19:25:50,1142560
2025-09-03 19:25:50,1142665
2025-09-03 19:25:50,1142851
2025-09-03 19:25:50,1142991
2025-09-03 19:25:50,1143066
2025-09-03 19:25:50,1143131
2025-09-03 19:25:50,1143045
2025-09-03 19:25:50,1143026
2025-09-03 19:25:50,1142978
2025-09-03 19:25:50,1142789
2025-09-03 19:25:50,1142781
2025-09-03 19:25:50,1142715
2025-09-03 19:25:50,1142640
2025-09-03 19:25:50,1142627
2025-09-03 19:25:50,1142762
2025-09-03 19:25:50,1142854
2025-09-03 19:25:50,1142956
2025-09-03 19:25:50,1143104
2025-09-03 19:25:50,1143304
2025-09-03 19:25:50,1143501
2025-09-03 19:25:50,1143617
2025-09-03 19:25:50,1143885
2025-09-03 19:25:50,1144099
2025-09-03 19:25:50,1144254
2025-09-03 19:25:50,1144497
2025-09-03 19:25:50,1144690
2025-09-03 19:25:50,1144826
2025-09-03 19:25:50,1145072
2025-09-03 19:25:50,1145226
2025-09-03 19:25:50,1145382
2025-09-03 19:25:50,1145625
2025-09-03 19:25:50,1145732
2025-09-03 19:25:50,1145938
2025-09-03 19:25:50,1146041
2025-09-03 19:25:50,1146243
2025-09-03 19:25:50,1146408
2025-09-03 19:25:50,1146585
2025-09-03 19:25:50,1146718
2025-09-03 19:25:50,1146854
2025-09-03 19:25:50,1146948
2025-09-03 19:25:50,1147233
2025-09-03 19:25:50,1147391
2025-09-03 19:25:50,1147489
2025-09-03 19:25:50,1147678
2025-09-03 19:25:50,1147936
2025-09-03 19:25:51,1148103
2025-09-03 19:25:51,1148346
2025-09-03 19:25:51,1148458
2025-09-03 19:25:51,1148625
2025-09-03 19:25:51,1148831
2025-09-03 19:25:51,1149010
2025-09-03 19:25:51,1149022
2025-09-03 19:25:51,1148841
2025-09-03 19:25:51,1148179
2025-09-03 19:25:51,1147026
2025-09-03 19:25:51,1145870
2025-09-03 19:25:51,1144834
2025-09-03 19:25:51,1144010
2025-09-03 19:25:51,1143455
2025-09-03 19:25:51,1142948
2025-09-03 19:25:51,1142801
2025-09-03 19:25:51,1142656
2025-09-03 19:25:51,1142627
2025-09-03 19:25:51,1142704
2025-09-03 19:25:51,1142806
2025-09-03 19:25:51,1142978
2025-09-03 19:25:51,1143066
2025-09-03 19:25:51,1143176
2025-09-03 19:25:51,1143276
2025-09-03 19:25:51,1143352
2025-09-03 19:25:51,1143546
2025-09-03 19:25:51,1143691
2025-09-03 19:25:51,1143846
2025-09-03 19:25:51,1144023
2025-09-03 19:25:51,1144119
2025-09-03 19:25:51,1144193
2025-09-03 19:25:51,1144178
2025-09-03 19:25:51,1143985
2025-09-03 19:25:51,1144016
2025-09-03 19:25:51,1143960
2025-09-03 19:25:51,1143909
2025-09-03 19:25:51,1143810
2025-09-03 19:25:51,1143890
2025-09-03 19:25:51,1143828
2025-09-03 19:25:51,1143873
2025-09-03 19:25:51,1143976
2025-09-03 19:25:51,1144156
2025-09-03 19:25:51,1144218
2025-09-03 19:25:51,1144422
2025-09-03 19:25:51,1144558
2025-09-03 19:25:51,1144736
2025-09-03 19:25:51,1144936
2025-09-03 19:25:51,1145157
2025-09-03 19:25:51,1145403
2025-09-03 19:25:51,1145587
2025-09-03 19:25:51,1145795
2025-09-03 19:25:51,1146035
2025-09-03 19:25:51,1146188
2025-09-03 19:25:51,1146392
2025-09-03 19:25:51,1146600
2025-09-03 19:25:51,1146787
2025-09-03 19:25:51,1146951
2025-09-03 19:25:51,1147088
2025-09-03 19:25:51,1147315
2025-09-03 19:25:51,1147555
2025-09-03 19:25:51,1147648
2025-09-03 19:25:51,1147820
2025-09-03 19:25:51,1147962
2025-09-03 19:25:51,1148158
2025-09-03 19:25:51,1148261
2025-09-03 19:25:51,1148423
2025-09-03 19:25:51,1148668
2025-09-03 19:25:51,1148881
2025-09-03 19:25:51,1148972
2025-09-03 19:25:51,1149149
2025-09-03 19:25:51,1149338
2025-09-03 19:25:51,1149611
2025-09-03 19:25:51,1149722
2025-09-03 19:25:51,1149933
2025-09-03 19:25:51,1150084
2025-09-03 19:25:51,1150199
2025-09-03 19:25:51,1150331
2025-09-03 19:25:51,1150129
2025-09-03 19:25:51,1149438
2025-09-03 19:25:51,1148252
2025-09-03 19:25:51,1146962
2025-09-03 19:25:51,1145813
2025-09-03 19:25:51,1144915
2025-09-03 19:25:51,1144253
2025-09-03 19:25:51,1143818
2025-09-03 19:25:51,1143537
2025-09-03 19:25:51,1143463
2025-09-03 19:25:51,1143428
2025-09-03 19:25:51,1143434
2025-09-03 19:25:51,1143518
2025-09-03 19:25:51,1143619
2025-09-03 19:25:51,1143675
2025-09-03 19:25:51,1143733
2025-09-03 19:25:51,1143863
2025-09-03 19:25:51,1143914
2025-09-03 19:25:51,1143973
2025-09-03 19:25:51,1144118
2025-09-03 19:25:51,1144278
2025-09-03 19:25:51,1144456
2025-09-03 19:25:51,1144514
2025-09-03 19:25:52,1144619
2025-09-03 19:25:52,1144564
2025-09-03 19:25:52,1144640
2025-09-03 19:25:52,1144568
2025-09-03 19:25:52,1144456
2025-09-03 19:25:52,1144397
2025-09-03 19:25:52,1144333
2025-09-03 19:25:52,1144256
2025-09-03 19:25:52,1144242
2025-09-03 19:25:52,1144289
2025-09-03 19:25:52,1144442
2025-09-03 19:25:52,1144560
2025-09-03 19:25:52,1144649
2025-09-03 19:25:52,1144769
2025-09-03 19:25:52,1144899
2025-09-03 19:25:52,1145091
2025-09-03 19:25:52,1145397
2025-09-03 19:25:52,1145543
2025-09-03 19:25:52,1145754
2025-09-03 19:25:52,1145903
2025-09-03 19:25:52,1146164
2025-09-03 19:25:52,1146327
2025-09-03 19:25:52,1146606
2025-09-03 19:25:52,1146761
2025-09-03 19:25:52,1146926
2025-09-03 19:25:52,1147207
2025-09-03 19:25:52,1147327
2025-09-03 19:25:52,1147440
2025-09-03 19:25:52,1147667
2025-09-03 19:25:52,1147881
2025-09-03 19:25:52,1148069
2025-09-03 19:25:52,1148191
2025-09-03 19:25:52,1148304
2025-09-03 19:25:52,1148577
2025-09-03 19:25:52,1148691
2025-09-03 19:25:52,1148805
2025-09-03 19:25:52,1148930
2025-09-03 19:25:52,1149222
2025-09-03 19:25:52,1149294
2025-09-03 19:25:52,1149491
2025-09-03 19:25:52,1149683
2025-09-03 19:25:52,1149919
2025-09-03 19:25:52,1150107
2025-09-03 19:25:52,1150260
2025-09-03 19:25:52,1150558
2025-09-03 19:25:52,1150658
2025-09-03 19:25:52,1150746
2025-09-03 19:25:52,1150625
2025-09-03 19:25:52,1150057
2025-09-03 19:25:52,1148984
2025-09-03 19:25:52,1147766
2025-09-03 19:25:52,1146486
2025-09-03 19:25:52,1145546
2025-09-03 19:25:52,1144740
2025-09-03 19:25:52,1144281
2025-09-03 19:25:52,1143921
2025-09-03 19:25:52,1143879
2025-09-03 19:25:52,1143749
2025-09-03 19:25:52,1143805
2025-09-03 19:25:52,1143935
2025-09-03 19:25:52,1144038
2025-09-03 19:25:52,1144028
2025-09-03 19:25:52,1144120
2025-09-03 19:25:52,1144214
2025-09-03 19:25:52,1144299
2025-09-03 19:25:52,1144372
2025-09-03 19:25:52,1144468
2025-09-03 19:25:52,1144582
2025-09-03 19:25:52,1144755
2025-09-03 19:25:52,1144839
2025-09-03 19:25:52,1144985
2025-09-03 19:25:52,1144931
2025-09-03 19:25:52,1144902
2025-09-03 19:25:52,1144932
2025-09-03 19:25:52,1144782
2025-09-03 19:25:52,1144693
2025-09-03 19:25:52,1144550
2025-09-03 19:25:52,1144547
2025-09-03 19:25:52,1144520
2025-09-03 19:25:52,1144565
2025-09-03 19:25:52,1144625
2025-09-03 19:25:52,1144711
2025-09-03 19:25:52,1144806
2025-09-03 19:25:52,1144893
2025-09-03 19:25:52,1145148
2025-09-03 19:25:52,1145270
2025-09-03 19:25:52,1145469
2025-09-03 19:25:52,1145697
2025-09-03 19:25:52,1145866
2025-09-03 19:25:52,1146142
2025-09-03 19:25:52,1146325
2025-09-03 19:25:52,1146514
2025-09-03 19:25:52,1146700
2025-09-03 19:25:52,1146914
2025-09-03 19:25:52,1147084
2025-09-03 19:25:52,1147263
2025-09-03 19:25:52,1147486
2025-09-03 19:25:52,1147633
2025-09-03 19:25:52,1147786
2025-09-03 19:25:52,1147958
2025-09-03 19:25:53,1148131
2025-09-03 19:25:53,1148282
2025-09-03 19:25:53,1148477
2025-09-03 19:25:53,1148643
2025-09-03 19:25:53,1148785
2025-09-03 19:25:53,1148965
2025-09-03 19:25:53,1149149
2025-09-03 19:25:53,1149263
2025-09-03 19:25:53,1149477
2025-09-03 19:25:53,1149580
2025-09-03 19:25:53,1149747
2025-09-03 19:25:53,1149925
2025-09-03 19:25:53,1150158
2025-09-03 19:25:53,1150320
2025-09-03 19:25:53,1150505
2025-09-03 19:25:53,1150640
2025-09-03 19:25:53,1150672
2025-09-03 19:25:53,1150505
2025-09-03 19:25:53,1149661
2025-09-03 19:25:53,1148576
2025-09-03 19:25:53,1147292
2025-09-03 19:25:53,1146206
2025-09-03 19:25:53,1145317
2025-09-03 19:25:53,1144719
2025-09-03 19:25:53,1144277
2025-09-03 19:25:53,1143963
2025-09-03 19:25:53,1143850
2025-09-03 19:25:53,1143815
2025-09-03 19:25:53,1143757
2025-09-03 19:25:53,1143932
2025-09-03 19:25:53,1143997
2025-09-03 19:25:53,1144185
2025-09-03 19:25:53,1144216
2025-09-03 19:25:53,1144255
2025-09-03 19:25:53,1144367
2025-09-03 19:25:53,1144498
2025-09-03 19:25:53,1144631
2025-09-03 19:25:53,1144786
2025-09-03 19:25:53,1144818
2025-09-03 19:25:53,1144989
2025-09-03 19:25:53,1145062
2025-09-03 19:25:53,1145082
2025-09-03 19:25:53,1144966
2025-09-03 19:25:53,1144916
2025-09-03 19:25:53,1144800
2025-09-03 19:25:53,1144699
2025-09-03 19:25:53,1144565
2025-09-03 19:25:53,1144578
2025-09-03 19:25:53,1144541
2025-09-03 19:25:53,1144527
2025-09-03 19:25:53,1144651
2025-09-03 19:25:53,1144648
2025-09-03 19:25:53,1144839
2025-09-03 19:25:53,1145032
2025-09-03 19:25:53,1145212
2025-09-03 19:25:53,1145305
2025-09-03 19:25:53,1145482
2025-09-03 19:25:53,1145675
2025-09-03 19:25:53,1145989
2025-09-03 19:25:53,1146071
2025-09-03 19:25:53,1146270
2025-09-03 19:25:53,1146487
2025-09-03 19:25:53,1146708
2025-09-03 19:25:53,1146884
2025-09-03 19:25:53,1147069
2025-09-03 19:25:53,1147240
2025-09-03 19:25:53,1147399
2025-09-03 19:25:53,1147550
2025-09-03 19:25:53,1147748
2025-09-03 19:25:53,1147933
2025-09-03 19:25:53,1148117
2025-09-03 19:25:53,1148196
2025-09-03 19:25:53,1148351
2025-09-03 19:25:53,1148477
2025-09-03 19:25:53,1148578
2025-09-03 19:25:53,1148709
2025-09-03 19:25:53,1148853
2025-09-03 19:25:53,1149024
2025-09-03 19:25:53,1149192
2025-09-03 19:25:53,1149423
2025-09-03 19:25:53,1149590
2025-09-03 19:25:53,1149659
2025-09-03 19:25:53,1149878
2025-09-03 19:25:53,1150080
2025-09-03 19:25:53,1150223
2025-09-03 19:25:53,1150348
2025-09-03 19:25:53,1150321
2025-09-03 19:25:53,1149764
2025-09-03 19:25:53,1148734
2025-09-03 19:25:53,1147626
2025-09-03 19:25:53,1146506
2025-09-03 19:25:53,1145485
2025-09-03 19:25:53,1144713
2025-09-03 19:25:53,1144243
2025-09-03 19:25:53,1143908
2025-09-03 19:25:53,1143699
2025-09-03 19:25:53,1143634
2025-09-03 19:25:53,1143698
2025-09-03 19:25:53,1143678
2025-09-03 19:25:53,1143761
2025-09-03 19:25:54,1143970
2025-09-03 19:25:54,1144071
2025-09-03 19:25:54,1144209
2025-09-03 19:25:54,1144259
2025-09-03 19:25:54,1144488
2025-09-03 19:25:54,1144563
2025-09-03 19:25:54,1144785
2025-09-03 19:25:54,1144880
2025-09-03 19:25:54,1145009
2025-09-03 19:25:54,1144996
2025-09-03 19:25:54,1144940
2025-09-03 19:25:54,1144960
2025-09-03 19:25:54,1144757
2025-09-03 19:25:54,1144733
2025-09-03 19:25:54,1144577
2025-09-03 19:25:54,1144536
2025-09-03 19:25:54,1144514
2025-09-03 19:25:54,1144422
2025-09-03 19:25:54,1144399
2025-09-03 19:25:54,1144493
2025-09-03 19:25:54,1144574
2025-09-03 19:25:54,1144678
2025-09-03 19:25:54,1144851
2025-09-03 19:25:54,1145029
2025-09-03 19:25:54,1145185
2025-09-03 19:25:54,1145333
2025-09-03 19:25:54,1145549
2025-09-03 19:25:54,1145780
2025-09-03 19:25:54,1145961
2025-09-03 19:25:54,1146166
2025-09-03 19:25:54,1146340
2025-09-03 19:25:54,1146510
2025-09-03 19:25:54,1146678
2025-09-03 19:25:54,1146872
2025-09-03 19:25:54,1147196
2025-09-03 19:25:54,1147306
2025-09-03 19:25:54,1147386
2025-09-03 19:25:54,1147599
2025-09-03 19:25:54,1147755
2025-09-03 19:25:54,1147953
2025-09-03 19:25:54,1148054
2025-09-03 19:25:54,1148137
2025-09-03 19:25:54,1148372
2025-09-03 19:25:54,1148504
2025-09-03 19:25:54,1148666
2025-09-03 19:25:54,1148803
2025-09-03 19:25:54,1148963
2025-09-03 19:25:54,1149106
2025-09-03 19:25:54,1149220
2025-09-03 19:25:54,1149457
2025-09-03 19:25:54,1149701
2025-09-03 19:25:54,1149851
2025-09-03 19:25:54,1149908
2025-09-03 19:25:54,1149959
2025-09-03 19:25:54,1149810
2025-09-03 19:25:54,1149167
2025-09-03 19:25:54,1148039
2025-09-03 19:25:54,1146682
2025-09-03 19:25:54,1145607
2025-09-03 19:25:54,1144576
2025-09-03 19:25:54,1143762
2025-09-03 19:25:54,1143207
2025-09-03 19:25:54,1142886
2025-09-03 19:25:54,1142704
2025-09-03 19:25:54,1142595
2025-09-03 19:25:54,1142601
2025-09-03 19:25:54,1142601
2025-09-03 19:25:54,1142604
2025-09-03 19:25:54,1142685
2025-09-03 19:25:54,1142635
2025-09-03 19:25:54,1142813
2025-09-03 19:25:54,1142815
2025-09-03 19:25:54,1142900
2025-09-03 19:25:54,1143017
2025-09-03 19:25:54,1143074
2025-09-03 19:25:54,1143288
2025-09-03 19:25:54,1143371
2025-09-03 19:25:54,1143367
2025-09-03 19:25:54,1143366
2025-09-03 19:25:54,1143307
2025-09-03 19:25:54,1143163
2025-09-03 19:25:54,1143005
2025-09-03 19:25:54,1142921
2025-09-03 19:25:54,1142859
2025-09-03 19:25:54,1142821
2025-09-03 19:25:54,1142775
2025-09-03 19:25:54,1142746
2025-09-03 19:25:54,1142838
2025-09-03 19:25:54,1142870
2025-09-03 19:25:54,1142967
2025-09-03 19:25:54,1143068
2025-09-03 19:25:54,1143283
2025-09-03 19:25:54,1143479
2025-09-03 19:25:54,1143616
2025-09-03 19:25:54,1143836
2025-09-03 19:25:54,1143948
2025-09-03 19:25:54,1144174
2025-09-03 19:25:54,1144366
2025-09-03 19:25:54,1144518
2025-09-03 19:25:54,1144778
2025-09-03 19:25:55,1144897
2025-09-03 19:25:55,1145080
2025-09-03 19:25:55,1145253
2025-09-03 19:25:55,1145308
2025-09-03 19:25:55,1145598
2025-09-03 19:25:55,1145686
2025-09-03 19:25:55,1145793
2025-09-03 19:25:55,1146038
2025-09-03 19:25:55,1146161
2025-09-03 19:25:55,1146262
2025-09-03 19:25:55,1146389
2025-09-03 19:25:55,1146606
2025-09-03 19:25:55,1146695
2025-09-03 19:25:55,1146865
2025-09-03 19:25:55,1147054
2025-09-03 19:25:55,1147199
2025-09-03 19:25:55,1147407
2025-09-03 19:25:55,1147589
2025-09-03 19:25:55,1147679
2025-09-03 19:25:55,1147908
2025-09-03 19:25:55,1147980
2025-09-03 19:25:55,1147946
2025-09-03 19:25:55,1147439
2025-09-03 19:25:55,1146622
2025-09-03 19:25:55,1145369
2025-09-03 19:25:55,1144108
2025-09-03 19:25:55,1142975
2025-09-03 19:25:55,1142108
2025-09-03 19:25:55,1141522
2025-09-03 19:25:55,1141014
2025-09-03 19:25:55,1140698
2025-09-03 19:25:55,1140526
2025-09-03 19:25:55,1140459
2025-09-03 19:25:55,1140441
2025-09-03 19:25:55,1140374
2025-09-03 19:25:55,1140477
2025-09-03 19:25:55,1140405
2025-09-03 19:25:55,1140440
2025-09-03 19:25:55,1140466
2025-09-03 19:25:55,1140425
2025-09-03 19:25:55,1140474
2025-09-03 19:25:55,1140590
2025-09-03 19:25:55,1140692
2025-09-03 19:25:55,1140790
2025-09-03 19:25:55,1140784
2025-09-03 19:25:55,1140854
2025-09-03 19:25:55,1140817
2025-09-03 19:25:55,1140799
2025-09-03 19:25:55,1140684
2025-09-03 19:25:55,1140567
2025-09-03 19:25:55,1140404
2025-09-03 19:25:55,1140322
2025-09-03 19:25:55,1140303
2025-09-03 19:25:55,1140366
2025-09-03 19:25:55,1140234
2025-09-03 19:25:55,1140340
2025-09-03 19:25:55,1140370
2025-09-03 19:25:55,1140519
2025-09-03 19:25:55,1140716
2025-09-03 19:25:55,1140797
2025-09-03 19:25:55,1140961
2025-09-03 19:25:55,1141177
2025-09-03 19:25:55,1141291
2025-09-03 19:25:55,1141466
2025-09-03 19:25:55,1141696
2025-09-03 19:25:55,1141782
2025-09-03 19:25:55,1142113
2025-09-03 19:25:55,1142271
2025-09-03 19:25:55,1142381
2025-09-03 19:25:55,1142620
2025-09-03 19:25:55,1142806
2025-09-03 19:25:55,1142916
2025-09-03 19:25:55,1143098
2025-09-03 19:25:55,1143208
2025-09-03 19:25:55,1143341
2025-09-03 19:25:55,1143515
2025-09-03 19:25:55,1143613
2025-09-03 19:25:55,1143777
2025-09-03 19:25:55,1143915
2025-09-03 19:25:55,1144039
2025-09-03 19:25:55,1144282
2025-09-03 19:25:55,1144330
2025-09-03 19:25:55,1144585
2025-09-03 19:25:55,1144699
2025-09-03 19:25:55,1144904
2025-09-03 19:25:55,1145187
2025-09-03 19:25:55,1145269
2025-09-03 19:25:55,1145519
2025-09-03 19:25:55,1145693
2025-09-03 19:25:55,1145781
2025-09-03 19:25:55,1145580
2025-09-03 19:25:55,1145114
2025-09-03 19:25:55,1144072
2025-09-03 19:25:55,1142872
2025-09-03 19:25:55,1141674
