timestamp,value
2025-09-03 19:30:53,1347769
2025-09-03 19:30:53,1347690
2025-09-03 19:30:53,1347780
2025-09-03 19:30:53,1347830
2025-09-03 19:30:53,1347844
2025-09-03 19:30:53,1347790
2025-09-03 19:30:53,1347815
2025-09-03 19:30:53,1347699
2025-09-03 19:30:53,1347704
2025-09-03 19:30:53,1347588
2025-09-03 19:30:53,1347467
2025-09-03 19:30:53,1347592
2025-09-03 19:30:53,1347580
2025-09-03 19:30:53,1347645
2025-09-03 19:30:53,1347694
2025-09-03 19:30:53,1347725
2025-09-03 19:30:53,1347741
2025-09-03 19:30:53,1347765
2025-09-03 19:30:53,1347771
2025-09-03 19:30:53,1347915
2025-09-03 19:30:53,1347815
2025-09-03 19:30:53,1347882
2025-09-03 19:30:53,1347846
2025-09-03 19:30:53,1347832
2025-09-03 19:30:53,1347927
2025-09-03 19:30:53,1347968
2025-09-03 19:30:53,1347926
2025-09-03 19:30:53,1347981
2025-09-03 19:30:53,1348004
2025-09-03 19:30:53,1348059
2025-09-03 19:30:53,1347945
2025-09-03 19:30:53,1348018
2025-09-03 19:30:53,1347922
2025-09-03 19:30:53,1347820
2025-09-03 19:30:53,1348002
2025-09-03 19:30:53,1347998
2025-09-03 19:30:53,1348078
2025-09-03 19:30:53,1348093
2025-09-03 19:30:53,1347943
2025-09-03 19:30:53,1347853
2025-09-03 19:30:53,1347940
2025-09-03 19:30:53,1347896
2025-09-03 19:30:53,1347992
2025-09-03 19:30:53,1348060
2025-09-03 19:30:53,1348195
2025-09-03 19:30:53,1348207
2025-09-03 19:30:53,1347912
2025-09-03 19:30:53,1347615
2025-09-03 19:30:53,1347468
2025-09-03 19:30:53,1347270
2025-09-03 19:30:53,1347167
2025-09-03 19:30:53,1347012
2025-09-03 19:30:53,1347082
2025-09-03 19:30:53,1347221
2025-09-03 19:30:53,1347620
2025-09-03 19:30:53,1348251
2025-09-03 19:30:53,1348379
2025-09-03 19:30:53,1348048
2025-09-03 19:30:53,1347285
2025-09-03 19:30:53,1346948
2025-09-03 19:30:53,1347082
2025-09-03 19:30:53,1347245
2025-09-03 19:30:53,1347526
2025-09-03 19:30:53,1347974
2025-09-03 19:30:53,1348533
2025-09-03 19:30:53,1349060
2025-09-03 19:30:53,1349398
2025-09-03 19:30:53,1349625
2025-09-03 19:30:53,1349496
2025-09-03 19:30:53,1349240
2025-09-03 19:30:53,1348602
2025-09-03 19:30:53,1348042
2025-09-03 19:30:53,1347768
2025-09-03 19:30:53,1347628
2025-09-03 19:30:53,1347761
2025-09-03 19:30:53,1347941
2025-09-03 19:30:53,1348202
2025-09-03 19:30:53,1348424
2025-09-03 19:30:53,1348563
2025-09-03 19:30:53,1348699
2025-09-03 19:30:53,1348668
2025-09-03 19:30:53,1348586
2025-09-03 19:30:54,1348622
2025-09-03 19:30:54,1348720
2025-09-03 19:30:54,1348910
2025-09-03 19:30:54,1349009
2025-09-03 19:30:54,1349256
2025-09-03 19:30:54,1349468
2025-09-03 19:30:54,1349608
2025-09-03 19:30:54,1349934
2025-09-03 19:30:54,1350126
2025-09-03 19:30:54,1350419
2025-09-03 19:30:54,1350680
2025-09-03 19:30:54,1351116
2025-09-03 19:30:54,1351499
2025-09-03 19:30:54,1351758
2025-09-03 19:30:54,1351892
2025-09-03 19:30:54,1352097
2025-09-03 19:30:54,1352282
2025-09-03 19:30:54,1352508
2025-09-03 19:30:54,1352591
2025-09-03 19:30:54,1352847
2025-09-03 19:30:54,1353209
2025-09-03 19:30:54,1353515
2025-09-03 19:30:54,1353882
2025-09-03 19:30:54,1354265
2025-09-03 19:30:54,1354729
2025-09-03 19:30:54,1355241
2025-09-03 19:30:54,1355757
2025-09-03 19:30:54,1356222
2025-09-03 19:30:54,1356719
2025-09-03 19:30:54,1357507
2025-09-03 19:30:54,1358103
2025-09-03 19:30:54,1358755
2025-09-03 19:30:54,1359450
2025-09-03 19:30:54,1360134
2025-09-03 19:30:54,1360747
2025-09-03 19:30:54,1361426
2025-09-03 19:30:54,1362112
2025-09-03 19:30:54,1362803
2025-09-03 19:30:54,1363511
2025-09-03 19:30:54,1363990
2025-09-03 19:30:54,1364605
2025-09-03 19:30:54,1365192
2025-09-03 19:30:54,1365779
2025-09-03 19:30:54,1366486
2025-09-03 19:30:54,1367274
2025-09-03 19:30:54,1367891
2025-09-03 19:30:54,1368450
2025-09-03 19:30:54,1368933
2025-09-03 19:30:54,1369303
2025-09-03 19:30:54,1369521
2025-09-03 19:30:54,1369643
2025-09-03 19:30:54,1369857
2025-09-03 19:30:54,1370086
2025-09-03 19:30:54,1370751
2025-09-03 19:30:54,1371791
2025-09-03 19:30:54,1372452
2025-09-03 19:30:54,1372885
2025-09-03 19:30:54,1372953
2025-09-03 19:30:54,1373027
2025-09-03 19:30:54,1373033
2025-09-03 19:30:54,1373021
2025-09-03 19:30:54,1372805
2025-09-03 19:30:54,1372498
2025-09-03 19:30:54,1372177
2025-09-03 19:30:54,1371901
2025-09-03 19:30:54,1371692
2025-09-03 19:30:54,1371600
2025-09-03 19:30:54,1371520
2025-09-03 19:30:54,1371358
2025-09-03 19:30:54,1371293
2025-09-03 19:30:54,1371311
2025-09-03 19:30:54,1371438
2025-09-03 19:30:54,1371551
2025-09-03 19:30:54,1371779
2025-09-03 19:30:54,1371899
2025-09-03 19:30:54,1371797
2025-09-03 19:30:54,1371694
2025-09-03 19:30:54,1371521
2025-09-03 19:30:54,1371391
2025-09-03 19:30:54,1371275
2025-09-03 19:30:54,1371208
2025-09-03 19:30:54,1371128
2025-09-03 19:30:54,1371260
2025-09-03 19:30:54,1371383
2025-09-03 19:30:54,1371518
2025-09-03 19:30:54,1371592
2025-09-03 19:30:54,1371648
2025-09-03 19:30:54,1371638
2025-09-03 19:30:54,1371662
2025-09-03 19:30:54,1371878
2025-09-03 19:30:54,1371981
2025-09-03 19:30:54,1372138
2025-09-03 19:30:54,1372377
2025-09-03 19:30:54,1372601
2025-09-03 19:30:54,1372686
2025-09-03 19:30:54,1372825
2025-09-03 19:30:54,1372697
2025-09-03 19:30:54,1372663
2025-09-03 19:30:54,1372564
2025-09-03 19:30:54,1372486
2025-09-03 19:30:55,1372310
2025-09-03 19:30:55,1372040
2025-09-03 19:30:55,1371750
2025-09-03 19:30:55,1371358
2025-09-03 19:30:55,1370949
2025-09-03 19:30:55,1370278
2025-09-03 19:30:55,1369849
2025-09-03 19:30:55,1369337
2025-09-03 19:30:55,1369066
2025-09-03 19:30:55,1368732
2025-09-03 19:30:55,1368504
2025-09-03 19:30:55,1368234
2025-09-03 19:30:55,1368031
2025-09-03 19:30:55,1367733
2025-09-03 19:30:55,1367510
2025-09-03 19:30:55,1367373
2025-09-03 19:30:55,1367291
2025-09-03 19:30:55,1367167
2025-09-03 19:30:55,1367147
2025-09-03 19:30:55,1367027
2025-09-03 19:30:55,1367062
2025-09-03 19:30:55,1367045
2025-09-03 19:30:55,1366900
2025-09-03 19:30:55,1366610
2025-09-03 19:30:55,1366446
2025-09-03 19:30:55,1366266
2025-09-03 19:30:55,1366046
2025-09-03 19:30:55,1365839
2025-09-03 19:30:55,1365689
2025-09-03 19:30:55,1365568
2025-09-03 19:30:55,1365545
2025-09-03 19:30:55,1365338
2025-09-03 19:30:55,1365328
2025-09-03 19:30:55,1365355
2025-09-03 19:30:55,1365368
2025-09-03 19:30:55,1365323
2025-09-03 19:30:55,1365287
2025-09-03 19:30:55,1365207
2025-09-03 19:30:55,1365044
2025-09-03 19:30:55,1365016
2025-09-03 19:30:55,1364906
2025-09-03 19:30:55,1364712
2025-09-03 19:30:55,1364694
2025-09-03 19:30:55,1364485
2025-09-03 19:30:55,1364391
2025-09-03 19:30:55,1364316
2025-09-03 19:30:55,1364212
2025-09-03 19:30:55,1364136
2025-09-03 19:30:55,1364096
2025-09-03 19:30:55,1364011
2025-09-03 19:30:55,1363966
2025-09-03 19:30:55,1364028
2025-09-03 19:30:55,1363988
2025-09-03 19:30:55,1363907
2025-09-03 19:30:55,1363964
2025-09-03 19:30:55,1363814
2025-09-03 19:30:55,1363849
2025-09-03 19:30:55,1363787
2025-09-03 19:30:55,1363783
2025-09-03 19:30:55,1363842
2025-09-03 19:30:55,1363800
2025-09-03 19:30:55,1363702
2025-09-03 19:30:55,1363640
2025-09-03 19:30:55,1363579
2025-09-03 19:30:55,1363618
2025-09-03 19:30:55,1363664
2025-09-03 19:30:55,1363613
2025-09-03 19:30:55,1363538
2025-09-03 19:30:55,1363513
2025-09-03 19:30:55,1363364
2025-09-03 19:30:55,1363351
2025-09-03 19:30:55,1363378
2025-09-03 19:30:55,1363338
2025-09-03 19:30:55,1363311
2025-09-03 19:30:55,1363298
2025-09-03 19:30:55,1363241
2025-09-03 19:30:55,1363279
2025-09-03 19:30:55,1363269
2025-09-03 19:30:55,1363296
2025-09-03 19:30:55,1363316
2025-09-03 19:30:55,1363285
2025-09-03 19:30:55,1363391
2025-09-03 19:30:55,1363299
2025-09-03 19:30:55,1363413
2025-09-03 19:30:55,1363469
2025-09-03 19:30:55,1363391
2025-09-03 19:30:55,1363503
2025-09-03 19:30:55,1363506
2025-09-03 19:30:55,1363525
2025-09-03 19:30:55,1363592
2025-09-03 19:30:55,1363671
2025-09-03 19:30:55,1363739
2025-09-03 19:30:55,1363696
2025-09-03 19:30:55,1363754
2025-09-03 19:30:55,1363756
2025-09-03 19:30:55,1363758
2025-09-03 19:30:55,1363656
2025-09-03 19:30:55,1363416
2025-09-03 19:30:55,1363183
2025-09-03 19:30:56,1362826
2025-09-03 19:30:56,1362618
2025-09-03 19:30:56,1362410
2025-09-03 19:30:56,1362156
2025-09-03 19:30:56,1361978
2025-09-03 19:30:56,1361803
2025-09-03 19:30:56,1361623
2025-09-03 19:30:56,1361338
2025-09-03 19:30:56,1361256
2025-09-03 19:30:56,1361020
2025-09-03 19:30:56,1361010
2025-09-03 19:30:56,1360930
2025-09-03 19:30:56,1360879
2025-09-03 19:30:56,1360727
2025-09-03 19:30:56,1360741
2025-09-03 19:30:56,1360721
2025-09-03 19:30:56,1360610
2025-09-03 19:30:56,1360590
2025-09-03 19:30:56,1360574
2025-09-03 19:30:56,1360541
2025-09-03 19:30:56,1360435
2025-09-03 19:30:56,1360560
2025-09-03 19:30:56,1360605
2025-09-03 19:30:56,1360667
2025-09-03 19:30:56,1360647
2025-09-03 19:30:56,1360764
2025-09-03 19:30:56,1360734
2025-09-03 19:30:56,1360703
2025-09-03 19:30:56,1360804
2025-09-03 19:30:56,1360676
2025-09-03 19:30:56,1360723
2025-09-03 19:30:56,1360701
2025-09-03 19:30:56,1360787
2025-09-03 19:30:56,1360786
2025-09-03 19:30:56,1360770
2025-09-03 19:30:56,1360747
2025-09-03 19:30:56,1360863
2025-09-03 19:30:56,1360817
2025-09-03 19:30:56,1360939
2025-09-03 19:30:56,1360902
2025-09-03 19:30:56,1361009
2025-09-03 19:30:56,1360994
2025-09-03 19:30:56,1361014
2025-09-03 19:30:56,1361194
2025-09-03 19:30:56,1361208
2025-09-03 19:30:56,1361193
2025-09-03 19:30:56,1361336
2025-09-03 19:30:56,1361297
2025-09-03 19:30:56,1361458
2025-09-03 19:30:56,1361531
2025-09-03 19:30:56,1361527
2025-09-03 19:30:56,1361519
2025-09-03 19:30:56,1361685
2025-09-03 19:30:56,1361665
2025-09-03 19:30:56,1361799
2025-09-03 19:30:56,1361779
2025-09-03 19:30:56,1361847
2025-09-03 19:30:56,1361899
2025-09-03 19:30:56,1361906
2025-09-03 19:30:56,1362014
2025-09-03 19:30:56,1362061
2025-09-03 19:30:56,1362132
2025-09-03 19:30:56,1362147
2025-09-03 19:30:56,1362130
2025-09-03 19:30:56,1362203
2025-09-03 19:30:56,1362305
2025-09-03 19:30:56,1362341
2025-09-03 19:30:56,1362479
2025-09-03 19:30:56,1362419
2025-09-03 19:30:56,1362445
2025-09-03 19:30:56,1362531
2025-09-03 19:30:56,1362697
2025-09-03 19:30:56,1362570
2025-09-03 19:30:56,1362499
2025-09-03 19:30:56,1362156
2025-09-03 19:30:56,1361896
2025-09-03 19:30:56,1361596
2025-09-03 19:30:56,1361391
2025-09-03 19:30:56,1361165
2025-09-03 19:30:56,1360855
2025-09-03 19:30:56,1360632
2025-09-03 19:30:56,1360559
2025-09-03 19:30:56,1360325
2025-09-03 19:30:56,1360212
2025-09-03 19:30:56,1360129
2025-09-03 19:30:56,1359973
2025-09-03 19:30:56,1359940
2025-09-03 19:30:56,1359884
2025-09-03 19:30:56,1359896
2025-09-03 19:30:56,1359866
2025-09-03 19:30:56,1359852
2025-09-03 19:30:56,1359771
2025-09-03 19:30:56,1359791
2025-09-03 19:30:56,1359792
2025-09-03 19:30:56,1359815
2025-09-03 19:30:56,1359864
2025-09-03 19:30:56,1359820
2025-09-03 19:30:56,1359863
2025-09-03 19:30:56,1360053
2025-09-03 19:30:56,1360028
2025-09-03 19:30:57,1360087
2025-09-03 19:30:57,1360050
2025-09-03 19:30:57,1360114
2025-09-03 19:30:57,1360102
2025-09-03 19:30:57,1360131
2025-09-03 19:30:57,1360090
2025-09-03 19:30:57,1360121
2025-09-03 19:30:57,1360089
2025-09-03 19:30:57,1360133
2025-09-03 19:30:57,1360207
2025-09-03 19:30:57,1360250
2025-09-03 19:30:57,1360165
2025-09-03 19:30:57,1360152
2025-09-03 19:30:57,1360149
2025-09-03 19:30:57,1360216
2025-09-03 19:30:57,1360290
2025-09-03 19:30:57,1360348
2025-09-03 19:30:57,1360240
2025-09-03 19:30:57,1360452
2025-09-03 19:30:57,1360512
2025-09-03 19:30:57,1360553
2025-09-03 19:30:57,1360627
2025-09-03 19:30:57,1360680
2025-09-03 19:30:57,1360650
2025-09-03 19:30:57,1360859
2025-09-03 19:30:57,1360899
2025-09-03 19:30:57,1360899
2025-09-03 19:30:57,1361008
2025-09-03 19:30:57,1361032
2025-09-03 19:30:57,1361180
2025-09-03 19:30:57,1361127
2025-09-03 19:30:57,1361156
2025-09-03 19:30:57,1361169
2025-09-03 19:30:57,1361246
2025-09-03 19:30:57,1361316
2025-09-03 19:30:57,1361350
2025-09-03 19:30:57,1361329
2025-09-03 19:30:57,1361448
2025-09-03 19:30:57,1361428
2025-09-03 19:30:57,1361477
2025-09-03 19:30:57,1361547
2025-09-03 19:30:57,1361614
2025-09-03 19:30:57,1361609
2025-09-03 19:30:57,1361630
2025-09-03 19:30:57,1361689
2025-09-03 19:30:57,1361722
2025-09-03 19:30:57,1361707
2025-09-03 19:30:57,1361689
2025-09-03 19:30:57,1361603
2025-09-03 19:30:57,1361359
2025-09-03 19:30:57,1361098
2025-09-03 19:30:57,1360853
2025-09-03 19:30:57,1360519
2025-09-03 19:30:57,1360198
2025-09-03 19:30:57,1359955
2025-09-03 19:30:57,1359688
2025-09-03 19:30:57,1359400
2025-09-03 19:30:57,1359320
2025-09-03 19:30:57,1359201
2025-09-03 19:30:57,1359130
2025-09-03 19:30:57,1359079
2025-09-03 19:30:57,1359017
2025-09-03 19:30:57,1358948
2025-09-03 19:30:57,1358872
2025-09-03 19:30:57,1358852
2025-09-03 19:30:57,1358876
2025-09-03 19:30:57,1358764
2025-09-03 19:30:57,1358775
2025-09-03 19:30:57,1358881
2025-09-03 19:30:57,1358824
2025-09-03 19:30:57,1358887
2025-09-03 19:30:57,1358907
2025-09-03 19:30:57,1358940
2025-09-03 19:30:57,1359082
2025-09-03 19:30:57,1359010
2025-09-03 19:30:57,1359030
2025-09-03 19:30:57,1359108
2025-09-03 19:30:57,1359152
2025-09-03 19:30:57,1359128
2025-09-03 19:30:57,1359193
2025-09-03 19:30:57,1359210
2025-09-03 19:30:57,1359150
2025-09-03 19:30:57,1359184
2025-09-03 19:30:57,1359129
2025-09-03 19:30:57,1359207
2025-09-03 19:30:57,1359246
2025-09-03 19:30:57,1359238
2025-09-03 19:30:57,1359173
2025-09-03 19:30:57,1359301
2025-09-03 19:30:57,1359334
2025-09-03 19:30:57,1359344
2025-09-03 19:30:57,1359382
2025-09-03 19:30:57,1359372
2025-09-03 19:30:57,1359465
2025-09-03 19:30:57,1359550
2025-09-03 19:30:57,1359487
2025-09-03 19:30:57,1359573
2025-09-03 19:30:57,1359678
2025-09-03 19:30:57,1359741
2025-09-03 19:30:57,1359793
2025-09-03 19:30:57,1359911
2025-09-03 19:30:58,1359913
2025-09-03 19:30:58,1359981
2025-09-03 19:30:58,1360121
2025-09-03 19:30:58,1360078
2025-09-03 19:30:58,1360202
2025-09-03 19:30:58,1360193
2025-09-03 19:30:58,1360262
2025-09-03 19:30:58,1360328
2025-09-03 19:30:58,1360347
2025-09-03 19:30:58,1360412
2025-09-03 19:30:58,1360451
2025-09-03 19:30:58,1360482
2025-09-03 19:30:58,1360494
2025-09-03 19:30:58,1360652
2025-09-03 19:30:58,1360587
2025-09-03 19:30:58,1360616
2025-09-03 19:30:58,1360656
2025-09-03 19:30:58,1360716
2025-09-03 19:30:58,1360798
2025-09-03 19:30:58,1360887
2025-09-03 19:30:58,1360988
2025-09-03 19:30:58,1360979
2025-09-03 19:30:58,1361010
2025-09-03 19:30:58,1361054
2025-09-03 19:30:58,1361197
2025-09-03 19:30:58,1361075
2025-09-03 19:30:58,1361014
2025-09-03 19:30:58,1360662
2025-09-03 19:30:58,1360425
2025-09-03 19:30:58,1360085
2025-09-03 19:30:58,1359831
2025-09-03 19:30:58,1359573
2025-09-03 19:30:58,1359225
2025-09-03 19:30:58,1359004
2025-09-03 19:30:58,1358739
2025-09-03 19:30:58,1358576
2025-09-03 19:30:58,1358459
2025-09-03 19:30:58,1358384
2025-09-03 19:30:58,1358305
2025-09-03 19:30:58,1358247
2025-09-03 19:30:58,1358143
2025-09-03 19:30:58,1358144
2025-09-03 19:30:58,1358101
2025-09-03 19:30:58,1358111
2025-09-03 19:30:58,1358029
2025-09-03 19:30:58,1358089
2025-09-03 19:30:58,1358045
2025-09-03 19:30:58,1358060
2025-09-03 19:30:58,1358001
2025-09-03 19:30:58,1358058
2025-09-03 19:30:58,1358168
2025-09-03 19:30:58,1358128
2025-09-03 19:30:58,1358311
2025-09-03 19:30:58,1358350
2025-09-03 19:30:58,1358304
2025-09-03 19:30:58,1358279
2025-09-03 19:30:58,1358390
2025-09-03 19:30:58,1358293
2025-09-03 19:30:58,1358357
2025-09-03 19:30:58,1358353
2025-09-03 19:30:58,1358449
2025-09-03 19:30:58,1358456
2025-09-03 19:30:58,1358332
2025-09-03 19:30:58,1358367
2025-09-03 19:30:58,1358433
2025-09-03 19:30:58,1358468
2025-09-03 19:30:58,1358507
2025-09-03 19:30:58,1358517
2025-09-03 19:30:58,1358553
2025-09-03 19:30:58,1358585
2025-09-03 19:30:58,1358645
2025-09-03 19:30:58,1358687
2025-09-03 19:30:58,1358748
2025-09-03 19:30:58,1358792
2025-09-03 19:30:58,1358849
2025-09-03 19:30:58,1358863
2025-09-03 19:30:58,1358918
2025-09-03 19:30:58,1359043
2025-09-03 19:30:58,1359022
2025-09-03 19:30:58,1359165
2025-09-03 19:30:58,1359282
2025-09-03 19:30:58,1359350
2025-09-03 19:30:58,1359485
2025-09-03 19:30:58,1359459
2025-09-03 19:30:58,1359581
2025-09-03 19:30:58,1359567
2025-09-03 19:30:58,1359614
2025-09-03 19:30:58,1359691
2025-09-03 19:30:58,1359723
2025-09-03 19:30:58,1359791
2025-09-03 19:30:58,1359937
2025-09-03 19:30:58,1359887
2025-09-03 19:30:58,1359987
2025-09-03 19:30:58,1360055
2025-09-03 19:30:58,1360093
2025-09-03 19:30:58,1360175
2025-09-03 19:30:58,1360188
2025-09-03 19:30:58,1360206
2025-09-03 19:30:58,1360235
2025-09-03 19:30:59,1360325
2025-09-03 19:30:59,1360376
2025-09-03 19:30:59,1360423
2025-09-03 19:30:59,1360485
2025-09-03 19:30:59,1360492
2025-09-03 19:30:59,1360483
2025-09-03 19:30:59,1360526
2025-09-03 19:30:59,1360582
2025-09-03 19:30:59,1360352
2025-09-03 19:30:59,1360145
2025-09-03 19:30:59,1359725
2025-09-03 19:30:59,1359502
2025-09-03 19:30:59,1359221
2025-09-03 19:30:59,1358967
2025-09-03 19:30:59,1358695
2025-09-03 19:30:59,1358397
2025-09-03 19:30:59,1358230
2025-09-03 19:30:59,1358022
2025-09-03 19:30:59,1357919
2025-09-03 19:30:59,1357776
2025-09-03 19:30:59,1357781
2025-09-03 19:30:59,1357521
2025-09-03 19:30:59,1357546
2025-09-03 19:30:59,1357511
2025-09-03 19:30:59,1357539
2025-09-03 19:30:59,1357494
2025-09-03 19:30:59,1357469
2025-09-03 19:30:59,1357468
2025-09-03 19:30:59,1357498
2025-09-03 19:30:59,1357465
2025-09-03 19:30:59,1357500
2025-09-03 19:30:59,1357530
2025-09-03 19:30:59,1357732
2025-09-03 19:30:59,1357750
2025-09-03 19:30:59,1357710
2025-09-03 19:30:59,1357819
2025-09-03 19:30:59,1357820
2025-09-03 19:30:59,1357907
2025-09-03 19:30:59,1357783
2025-09-03 19:30:59,1357902
2025-09-03 19:30:59,1357986
2025-09-03 19:30:59,1357911
2025-09-03 19:30:59,1357980
2025-09-03 19:30:59,1358040
2025-09-03 19:30:59,1358005
2025-09-03 19:30:59,1358014
2025-09-03 19:30:59,1358131
2025-09-03 19:30:59,1358091
2025-09-03 19:30:59,1358176
2025-09-03 19:30:59,1358145
2025-09-03 19:30:59,1358194
2025-09-03 19:30:59,1358178
2025-09-03 19:30:59,1358262
2025-09-03 19:30:59,1358387
2025-09-03 19:30:59,1358360
2025-09-03 19:30:59,1358433
2025-09-03 19:30:59,1358476
2025-09-03 19:30:59,1358476
2025-09-03 19:30:59,1358662
2025-09-03 19:30:59,1358704
2025-09-03 19:30:59,1358745
2025-09-03 19:30:59,1358819
2025-09-03 19:30:59,1358878
2025-09-03 19:30:59,1358968
2025-09-03 19:30:59,1358986
2025-09-03 19:30:59,1359092
2025-09-03 19:30:59,1359090
2025-09-03 19:30:59,1359177
2025-09-03 19:30:59,1359313
2025-09-03 19:30:59,1359328
2025-09-03 19:30:59,1359370
2025-09-03 19:30:59,1359438
2025-09-03 19:30:59,1359511
2025-09-03 19:30:59,1359572
2025-09-03 19:30:59,1359547
2025-09-03 19:30:59,1359624
2025-09-03 19:30:59,1359679
2025-09-03 19:30:59,1359681
2025-09-03 19:30:59,1359813
2025-09-03 19:30:59,1359878
2025-09-03 19:30:59,1359958
2025-09-03 19:30:59,1359938
2025-09-03 19:30:59,1359976
2025-09-03 19:30:59,1360121
2025-09-03 19:30:59,1360202
2025-09-03 19:30:59,1360096
2025-09-03 19:30:59,1360245
2025-09-03 19:30:59,1360167
2025-09-03 19:30:59,1360250
2025-09-03 19:30:59,1360303
2025-09-03 19:30:59,1360220
2025-09-03 19:30:59,1359968
2025-09-03 19:30:59,1359651
2025-09-03 19:30:59,1359511
2025-09-03 19:30:59,1359070
2025-09-03 19:30:59,1358822
2025-09-03 19:30:59,1358520
2025-09-03 19:30:59,1358343
2025-09-03 19:30:59,1358107
2025-09-03 19:30:59,1357888
2025-09-03 19:30:59,1357779
2025-09-03 19:31:00,1357728
2025-09-03 19:31:00,1357552
2025-09-03 19:31:00,1357543
2025-09-03 19:31:00,1357529
2025-09-03 19:31:00,1357478
2025-09-03 19:31:00,1357481
2025-09-03 19:31:00,1357397
2025-09-03 19:31:00,1357469
2025-09-03 19:31:00,1357460
2025-09-03 19:31:00,1357495
2025-09-03 19:31:00,1357452
2025-09-03 19:31:00,1357507
2025-09-03 19:31:00,1357520
2025-09-03 19:31:00,1357662
2025-09-03 19:31:00,1357706
2025-09-03 19:31:00,1357701
2025-09-03 19:31:00,1357763
2025-09-03 19:31:00,1357968
2025-09-03 19:31:00,1357977
2025-09-03 19:31:00,1357898
2025-09-03 19:31:00,1357910
2025-09-03 19:31:00,1357894
2025-09-03 19:31:00,1357927
2025-09-03 19:31:00,1357888
2025-09-03 19:31:00,1357938
2025-09-03 19:31:00,1357902
2025-09-03 19:31:00,1357954
2025-09-03 19:31:00,1357924
2025-09-03 19:31:00,1357922
2025-09-03 19:31:00,1358009
2025-09-03 19:31:00,1358078
2025-09-03 19:31:00,1358147
2025-09-03 19:31:00,1358061
2025-09-03 19:31:00,1358247
2025-09-03 19:31:00,1358251
2025-09-03 19:31:00,1358217
2025-09-03 19:31:00,1358377
2025-09-03 19:31:00,1358362
2025-09-03 19:31:00,1358438
2025-09-03 19:31:00,1358593
2025-09-03 19:31:00,1358654
2025-09-03 19:31:00,1358688
2025-09-03 19:31:00,1358847
2025-09-03 19:31:00,1358890
2025-09-03 19:31:00,1358930
2025-09-03 19:31:00,1359016
2025-09-03 19:31:00,1359021
2025-09-03 19:31:00,1359092
2025-09-03 19:31:00,1359138
2025-09-03 19:31:00,1359286
2025-09-03 19:31:00,1359293
2025-09-03 19:31:00,1359383
2025-09-03 19:31:00,1359385
2025-09-03 19:31:00,1359401
2025-09-03 19:31:00,1359473
2025-09-03 19:31:00,1359535
2025-09-03 19:31:00,1359545
2025-09-03 19:31:00,1359649
2025-09-03 19:31:00,1359616
2025-09-03 19:31:00,1359726
2025-09-03 19:31:00,1359838
2025-09-03 19:31:00,1359810
2025-09-03 19:31:00,1359819
2025-09-03 19:31:00,1359881
2025-09-03 19:31:00,1359934
2025-09-03 19:31:00,1359991
2025-09-03 19:31:00,1360115
2025-09-03 19:31:00,1360135
2025-09-03 19:31:00,1360149
2025-09-03 19:31:00,1360155
2025-09-03 19:31:00,1359898
2025-09-03 19:31:00,1359604
2025-09-03 19:31:00,1359315
2025-09-03 19:31:00,1359056
2025-09-03 19:31:00,1358789
2025-09-03 19:31:00,1358492
2025-09-03 19:31:00,1358135
2025-09-03 19:31:00,1357996
2025-09-03 19:31:00,1357774
2025-09-03 19:31:00,1357686
2025-09-03 19:31:00,1357508
2025-09-03 19:31:00,1357498
2025-09-03 19:31:00,1357407
2025-09-03 19:31:00,1357329
2025-09-03 19:31:00,1357246
2025-09-03 19:31:00,1357326
2025-09-03 19:31:00,1357277
2025-09-03 19:31:00,1357332
2025-09-03 19:31:00,1357291
2025-09-03 19:31:00,1357263
2025-09-03 19:31:00,1357297
2025-09-03 19:31:00,1357416
2025-09-03 19:31:00,1357427
2025-09-03 19:31:00,1357535
2025-09-03 19:31:00,1357537
2025-09-03 19:31:00,1357604
2025-09-03 19:31:00,1357723
2025-09-03 19:31:00,1357670
2025-09-03 19:31:00,1357749
2025-09-03 19:31:00,1357767
2025-09-03 19:31:01,1357726
2025-09-03 19:31:01,1357747
2025-09-03 19:31:01,1357808
2025-09-03 19:31:01,1357772
2025-09-03 19:31:01,1357825
2025-09-03 19:31:01,1357720
2025-09-03 19:31:01,1357849
2025-09-03 19:31:01,1357880
2025-09-03 19:31:01,1357798
2025-09-03 19:31:01,1357828
2025-09-03 19:31:01,1357890
2025-09-03 19:31:01,1357900
2025-09-03 19:31:01,1357977
2025-09-03 19:31:01,1358011
2025-09-03 19:31:01,1358108
2025-09-03 19:31:01,1358193
2025-09-03 19:31:01,1358208
2025-09-03 19:31:01,1358306
2025-09-03 19:31:01,1358394
2025-09-03 19:31:01,1358422
2025-09-03 19:31:01,1358484
2025-09-03 19:31:01,1358555
2025-09-03 19:31:01,1358654
2025-09-03 19:31:01,1358708
2025-09-03 19:31:01,1358797
2025-09-03 19:31:01,1358838
2025-09-03 19:31:01,1358912
2025-09-03 19:31:01,1358937
2025-09-03 19:31:01,1359014
2025-09-03 19:31:01,1359057
2025-09-03 19:31:01,1359126
2025-09-03 19:31:01,1359206
2025-09-03 19:31:01,1359252
2025-09-03 19:31:01,1359365
2025-09-03 19:31:01,1359373
2025-09-03 19:31:01,1359406
2025-09-03 19:31:01,1359456
2025-09-03 19:31:01,1359421
2025-09-03 19:31:01,1359558
2025-09-03 19:31:01,1359482
2025-09-03 19:31:01,1359675
2025-09-03 19:31:01,1359602
2025-09-03 19:31:01,1359695
2025-09-03 19:31:01,1359686
2025-09-03 19:31:01,1359856
2025-09-03 19:31:01,1359829
2025-09-03 19:31:01,1359807
2025-09-03 19:31:01,1359915
2025-09-03 19:31:01,1359988
2025-09-03 19:31:01,1359948
2025-09-03 19:31:01,1359992
2025-09-03 19:31:01,1359871
2025-09-03 19:31:01,1359551
2025-09-03 19:31:01,1359254
2025-09-03 19:31:01,1358925
2025-09-03 19:31:01,1358602
2025-09-03 19:31:01,1358344
2025-09-03 19:31:01,1358099
2025-09-03 19:31:01,1357767
2025-09-03 19:31:01,1357492
2025-09-03 19:31:01,1357336
2025-09-03 19:31:01,1357238
2025-09-03 19:31:01,1357226
2025-09-03 19:31:01,1357191
2025-09-03 19:31:01,1357055
2025-09-03 19:31:01,1357054
2025-09-03 19:31:01,1356964
2025-09-03 19:31:01,1356941
2025-09-03 19:31:01,1356883
2025-09-03 19:31:01,1356968
2025-09-03 19:31:01,1356925
2025-09-03 19:31:01,1356838
2025-09-03 19:31:01,1356874
2025-09-03 19:31:01,1356919
2025-09-03 19:31:01,1356950
2025-09-03 19:31:01,1356962
2025-09-03 19:31:01,1357125
2025-09-03 19:31:01,1357247
2025-09-03 19:31:01,1357248
2025-09-03 19:31:01,1357352
2025-09-03 19:31:01,1357321
2025-09-03 19:31:01,1357242
2025-09-03 19:31:01,1357414
2025-09-03 19:31:01,1357381
2025-09-03 19:31:01,1357399
2025-09-03 19:31:01,1357406
2025-09-03 19:31:01,1357368
2025-09-03 19:31:01,1357394
2025-09-03 19:31:01,1357469
2025-09-03 19:31:01,1357500
2025-09-03 19:31:01,1357432
2025-09-03 19:31:01,1357535
2025-09-03 19:31:01,1357589
2025-09-03 19:31:01,1357587
2025-09-03 19:31:01,1357655
2025-09-03 19:31:01,1357608
2025-09-03 19:31:01,1357715
2025-09-03 19:31:01,1357811
2025-09-03 19:31:01,1357926
2025-09-03 19:31:02,1357943
2025-09-03 19:31:02,1357926
2025-09-03 19:31:02,1358047
2025-09-03 19:31:02,1358192
2025-09-03 19:31:02,1358315
2025-09-03 19:31:02,1358399
2025-09-03 19:31:02,1358409
2025-09-03 19:31:02,1358517
2025-09-03 19:31:02,1358529
2025-09-03 19:31:02,1358580
2025-09-03 19:31:02,1358683
2025-09-03 19:31:02,1358724
2025-09-03 19:31:02,1358791
2025-09-03 19:31:02,1358862
2025-09-03 19:31:02,1358988
2025-09-03 19:31:02,1359028
2025-09-03 19:31:02,1358992
2025-09-03 19:31:02,1359103
2025-09-03 19:31:02,1359204
2025-09-03 19:31:02,1359171
2025-09-03 19:31:02,1359295
2025-09-03 19:31:02,1359318
2025-09-03 19:31:02,1359401
2025-09-03 19:31:02,1359448
2025-09-03 19:31:02,1359452
2025-09-03 19:31:02,1359521
2025-09-03 19:31:02,1359547
2025-09-03 19:31:02,1359705
2025-09-03 19:31:02,1359647
2025-09-03 19:31:02,1359669
2025-09-03 19:31:02,1359713
2025-09-03 19:31:02,1359849
2025-09-03 19:31:02,1359838
2025-09-03 19:31:02,1359774
2025-09-03 19:31:02,1359767
2025-09-03 19:31:02,1359540
2025-09-03 19:31:02,1359151
2025-09-03 19:31:02,1358910
2025-09-03 19:31:02,1358504
2025-09-03 19:31:02,1358312
2025-09-03 19:31:02,1357990
2025-09-03 19:31:02,1357690
2025-09-03 19:31:02,1357545
2025-09-03 19:31:02,1357257
2025-09-03 19:31:02,1357182
2025-09-03 19:31:02,1357057
2025-09-03 19:31:02,1357008
2025-09-03 19:31:02,1356955
2025-09-03 19:31:02,1356935
2025-09-03 19:31:02,1356859
2025-09-03 19:31:02,1356868
2025-09-03 19:31:02,1356812
2025-09-03 19:31:02,1356808
2025-09-03 19:31:02,1356771
2025-09-03 19:31:02,1356788
2025-09-03 19:31:02,1356723
2025-09-03 19:31:02,1356751
2025-09-03 19:31:02,1356842
2025-09-03 19:31:02,1356996
2025-09-03 19:31:02,1357005
2025-09-03 19:31:02,1357089
2025-09-03 19:31:02,1357143
2025-09-03 19:31:02,1357203
2025-09-03 19:31:02,1357232
2025-09-03 19:31:02,1357252
2025-09-03 19:31:02,1357222
2025-09-03 19:31:02,1357338
2025-09-03 19:31:02,1357298
2025-09-03 19:31:02,1357387
2025-09-03 19:31:02,1357326
2025-09-03 19:31:02,1357396
2025-09-03 19:31:02,1357330
2025-09-03 19:31:02,1357411
2025-09-03 19:31:02,1357451
2025-09-03 19:31:02,1357578
2025-09-03 19:31:02,1357506
2025-09-03 19:31:02,1357521
2025-09-03 19:31:02,1357595
2025-09-03 19:31:02,1357628
2025-09-03 19:31:02,1357760
2025-09-03 19:31:02,1357829
2025-09-03 19:31:02,1357896
2025-09-03 19:31:02,1358031
2025-09-03 19:31:02,1358108
2025-09-03 19:31:02,1358151
2025-09-03 19:31:02,1358204
2025-09-03 19:31:02,1358306
2025-09-03 19:31:02,1358420
2025-09-03 19:31:02,1358556
2025-09-03 19:31:02,1358507
2025-09-03 19:31:02,1358620
2025-09-03 19:31:02,1358840
2025-09-03 19:31:02,1358785
2025-09-03 19:31:02,1358898
2025-09-03 19:31:02,1358958
2025-09-03 19:31:02,1358968
2025-09-03 19:31:02,1359152
2025-09-03 19:31:02,1359105
2025-09-03 19:31:02,1359127
2025-09-03 19:31:02,1359225
2025-09-03 19:31:03,1359263
2025-09-03 19:31:03,1359332
2025-09-03 19:31:03,1359383
2025-09-03 19:31:03,1359399
2025-09-03 19:31:03,1359457
2025-09-03 19:31:03,1359537
2025-09-03 19:31:03,1359584
2025-09-03 19:31:03,1359610
2025-09-03 19:31:03,1359694
2025-09-03 19:31:03,1359740
2025-09-03 19:31:03,1359779
2025-09-03 19:31:03,1359925
2025-09-03 19:31:03,1359899
2025-09-03 19:31:03,1359913
2025-09-03 19:31:03,1359826
2025-09-03 19:31:03,1359681
2025-09-03 19:31:03,1359305
2025-09-03 19:31:03,1358990
2025-09-03 19:31:03,1358662
2025-09-03 19:31:03,1358364
2025-09-03 19:31:03,1358070
2025-09-03 19:31:03,1357704
2025-09-03 19:31:03,1357520
2025-09-03 19:31:03,1357364
2025-09-03 19:31:03,1357153
2025-09-03 19:31:03,1357164
2025-09-03 19:31:03,1357046
2025-09-03 19:31:03,1357015
2025-09-03 19:31:03,1356924
2025-09-03 19:31:03,1356976
2025-09-03 19:31:03,1356864
2025-09-03 19:31:03,1356991
2025-09-03 19:31:03,1356962
2025-09-03 19:31:03,1356978
2025-09-03 19:31:03,1356937
2025-09-03 19:31:03,1356963
2025-09-03 19:31:03,1356971
2025-09-03 19:31:03,1357031
2025-09-03 19:31:03,1357066
2025-09-03 19:31:03,1357187
2025-09-03 19:31:03,1357169
2025-09-03 19:31:03,1357317
2025-09-03 19:31:03,1357331
2025-09-03 19:31:03,1357364
2025-09-03 19:31:03,1357352
2025-09-03 19:31:03,1357404
2025-09-03 19:31:03,1357561
2025-09-03 19:31:03,1357440
2025-09-03 19:31:03,1357462
2025-09-03 19:31:03,1357499
2025-09-03 19:31:03,1357455
2025-09-03 19:31:03,1357473
2025-09-03 19:31:03,1357600
2025-09-03 19:31:03,1357552
2025-09-03 19:31:03,1357590
2025-09-03 19:31:03,1357672
2025-09-03 19:31:03,1357731
2025-09-03 19:31:03,1357743
2025-09-03 19:31:03,1357764
2025-09-03 19:31:03,1357851
2025-09-03 19:31:03,1357906
2025-09-03 19:31:03,1357957
2025-09-03 19:31:03,1358118
2025-09-03 19:31:03,1358159
2025-09-03 19:31:03,1358191
2025-09-03 19:31:03,1358255
2025-09-03 19:31:03,1358393
2025-09-03 19:31:03,1358492
2025-09-03 19:31:03,1358498
2025-09-03 19:31:03,1358567
2025-09-03 19:31:03,1358608
2025-09-03 19:31:03,1358693
2025-09-03 19:31:03,1358827
2025-09-03 19:31:03,1358872
2025-09-03 19:31:03,1358863
2025-09-03 19:31:03,1359051
2025-09-03 19:31:03,1359046
2025-09-03 19:31:03,1359038
2025-09-03 19:31:03,1359185
2025-09-03 19:31:03,1359233
2025-09-03 19:31:03,1359311
2025-09-03 19:31:03,1359304
2025-09-03 19:31:03,1359378
2025-09-03 19:31:03,1359445
2025-09-03 19:31:03,1359433
2025-09-03 19:31:03,1359581
2025-09-03 19:31:03,1359659
2025-09-03 19:31:03,1359657
2025-09-03 19:31:03,1359786
2025-09-03 19:31:03,1359784
2025-09-03 19:31:03,1359828
2025-09-03 19:31:03,1359814
2025-09-03 19:31:03,1359844
2025-09-03 19:31:03,1359691
2025-09-03 19:31:03,1359335
2025-09-03 19:31:03,1359041
2025-09-03 19:31:03,1358672
2025-09-03 19:31:03,1358368
2025-09-03 19:31:03,1358094
2025-09-03 19:31:03,1357724
2025-09-03 19:31:04,1357421
2025-09-03 19:31:04,1357350
2025-09-03 19:31:04,1357147
2025-09-03 19:31:04,1356926
2025-09-03 19:31:04,1356868
2025-09-03 19:31:04,1356906
2025-09-03 19:31:04,1356822
2025-09-03 19:31:04,1356821
2025-09-03 19:31:04,1356790
2025-09-03 19:31:04,1356699
2025-09-03 19:31:04,1356846
2025-09-03 19:31:04,1356864
2025-09-03 19:31:04,1356851
2025-09-03 19:31:04,1356832
2025-09-03 19:31:04,1356897
2025-09-03 19:31:04,1356974
2025-09-03 19:31:04,1356988
2025-09-03 19:31:04,1357035
2025-09-03 19:31:04,1357177
2025-09-03 19:31:04,1357153
2025-09-03 19:31:04,1357258
2025-09-03 19:31:04,1357353
2025-09-03 19:31:04,1357287
2025-09-03 19:31:04,1357384
2025-09-03 19:31:04,1357403
2025-09-03 19:31:04,1357390
2025-09-03 19:31:04,1357355
2025-09-03 19:31:04,1357348
2025-09-03 19:31:04,1357308
2025-09-03 19:31:04,1357433
2025-09-03 19:31:04,1357418
2025-09-03 19:31:04,1357443
2025-09-03 19:31:04,1357476
2025-09-03 19:31:04,1357482
2025-09-03 19:31:04,1357470
2025-09-03 19:31:04,1357501
2025-09-03 19:31:04,1357583
2025-09-03 19:31:04,1357695
2025-09-03 19:31:04,1357735
2025-09-03 19:31:04,1357811
2025-09-03 19:31:04,1357866
2025-09-03 19:31:04,1358007
2025-09-03 19:31:04,1358065
2025-09-03 19:31:04,1358100
2025-09-03 19:31:04,1358141
2025-09-03 19:31:04,1358266
2025-09-03 19:31:04,1358318
2025-09-03 19:31:04,1358362
2025-09-03 19:31:04,1358514
2025-09-03 19:31:04,1358484
2025-09-03 19:31:04,1358613
2025-09-03 19:31:04,1358796
2025-09-03 19:31:04,1358783
2025-09-03 19:31:04,1358841
2025-09-03 19:31:04,1358855
2025-09-03 19:31:04,1358893
2025-09-03 19:31:04,1358905
2025-09-03 19:31:04,1359072
2025-09-03 19:31:04,1359059
2025-09-03 19:31:04,1359109
2025-09-03 19:31:04,1359230
2025-09-03 19:31:04,1359193
2025-09-03 19:31:04,1359239
2025-09-03 19:31:04,1359419
2025-09-03 19:31:04,1359422
2025-09-03 19:31:04,1359432
2025-09-03 19:31:04,1359619
2025-09-03 19:31:04,1359517
2025-09-03 19:31:04,1359699
2025-09-03 19:31:04,1359625
2025-09-03 19:31:04,1359517
2025-09-03 19:31:04,1359357
2025-09-03 19:31:04,1359016
2025-09-03 19:31:04,1358716
2025-09-03 19:31:04,1358373
2025-09-03 19:31:04,1358009
2025-09-03 19:31:04,1357607
2025-09-03 19:31:04,1357332
2025-09-03 19:31:04,1357047
2025-09-03 19:31:04,1356811
2025-09-03 19:31:04,1356647
2025-09-03 19:31:04,1356437
2025-09-03 19:31:04,1356417
2025-09-03 19:31:04,1356312
2025-09-03 19:31:04,1356339
2025-09-03 19:31:04,1356264
2025-09-03 19:31:04,1356284
2025-09-03 19:31:04,1356269
2025-09-03 19:31:04,1356272
2025-09-03 19:31:04,1356237
2025-09-03 19:31:04,1356234
2025-09-03 19:31:04,1356282
2025-09-03 19:31:04,1356354
2025-09-03 19:31:04,1356300
2025-09-03 19:31:04,1356432
2025-09-03 19:31:04,1356391
2025-09-03 19:31:04,1356515
2025-09-03 19:31:04,1356588
2025-09-03 19:31:04,1356670
2025-09-03 19:31:04,1356733
2025-09-03 19:31:05,1356723
2025-09-03 19:31:05,1356682
2025-09-03 19:31:05,1356726
2025-09-03 19:31:05,1356753
2025-09-03 19:31:05,1356763
2025-09-03 19:31:05,1356763
2025-09-03 19:31:05,1356764
2025-09-03 19:31:05,1356802
2025-09-03 19:31:05,1356863
2025-09-03 19:31:05,1356812
2025-09-03 19:31:05,1356849
2025-09-03 19:31:05,1356886
2025-09-03 19:31:05,1356913
2025-09-03 19:31:05,1356983
2025-09-03 19:31:05,1357123
2025-09-03 19:31:05,1357133
2025-09-03 19:31:05,1357198
2025-09-03 19:31:05,1357309
2025-09-03 19:31:05,1357307
2025-09-03 19:31:05,1357383
2025-09-03 19:31:05,1357488
2025-09-03 19:31:05,1357556
2025-09-03 19:31:05,1357619
2025-09-03 19:31:02,1357683
2025-09-03 19:31:05,1357819
2025-09-03 19:31:05,1357916
2025-09-03 19:31:05,1357944
2025-09-03 19:31:05,1357969
2025-09-03 19:31:05,1358129
2025-09-03 19:31:05,1358233
2025-09-03 19:31:05,1358248
2025-09-03 19:31:05,1358353
2025-09-03 19:31:05,1358355
2025-09-03 19:31:05,1358374
2025-09-03 19:31:05,1358487
2025-09-03 19:31:05,1358538
2025-09-03 19:31:05,1358551
2025-09-03 19:31:05,1358617
2025-09-03 19:31:05,1358731
2025-09-03 19:31:05,1358749
2025-09-03 19:31:05,1358923
2025-09-03 19:31:05,1358897
2025-09-03 19:31:05,1358924
2025-09-03 19:31:05,1359029
2025-09-03 19:31:05,1359041
2025-09-03 19:31:05,1359080
2025-09-03 19:31:05,1359196
2025-09-03 19:31:05,1359175
2025-09-03 19:31:05,1359314
2025-09-03 19:31:05,1359269
2025-09-03 19:31:05,1359175
2025-09-03 19:31:05,1358901
2025-09-03 19:31:05,1358567
2025-09-03 19:31:05,1358222
2025-09-03 19:31:05,1357861
2025-09-03 19:31:05,1357476
2025-09-03 19:31:05,1357064
2025-09-03 19:31:05,1356706
2025-09-03 19:31:05,1356427
2025-09-03 19:31:05,1356285
2025-09-03 19:31:05,1356046
2025-09-03 19:31:05,1355960
2025-09-03 19:31:05,1355803
2025-09-03 19:31:05,1355761
2025-09-03 19:31:05,1355667
2025-09-03 19:31:05,1355597
2025-09-03 19:31:05,1355660
2025-09-03 19:31:05,1355638
2025-09-03 19:31:05,1355566
2025-09-03 19:31:05,1355503
2025-09-03 19:31:05,1355652
2025-09-03 19:31:05,1355602
2025-09-03 19:31:05,1355509
2025-09-03 19:31:05,1355600
2025-09-03 19:31:05,1355691
2025-09-03 19:31:05,1355777
2025-09-03 19:31:05,1355868
2025-09-03 19:31:05,1355884
2025-09-03 19:31:05,1355909
2025-09-03 19:31:05,1355941
2025-09-03 19:31:05,1356014
2025-09-03 19:31:05,1356146
2025-09-03 19:31:05,1356185
2025-09-03 19:31:05,1356160
2025-09-03 19:31:05,1356204
2025-09-03 19:31:05,1356197
2025-09-03 19:31:05,1356260
2025-09-03 19:31:05,1356199
2025-09-03 19:31:05,1356301
2025-09-03 19:31:05,1356299
2025-09-03 19:31:05,1356311
2025-09-03 19:31:05,1356435
2025-09-03 19:31:05,1356397
2025-09-03 19:31:05,1356399
2025-09-03 19:31:05,1356485
2025-09-03 19:31:05,1356531
2025-09-03 19:31:05,1356629
2025-09-03 19:31:05,1356732
2025-09-03 19:31:05,1356817
2025-09-03 19:31:06,1356919
2025-09-03 19:31:06,1356943
2025-09-03 19:31:06,1357000
2025-09-03 19:31:06,1357155
2025-09-03 19:31:06,1357203
2025-09-03 19:31:06,1357271
2025-09-03 19:31:06,1357369
2025-09-03 19:31:06,1357468
2025-09-03 19:31:06,1357496
2025-09-03 19:31:06,1357577
2025-09-03 19:31:06,1357705
2025-09-03 19:31:06,1357845
2025-09-03 19:31:06,1357818
2025-09-03 19:31:06,1357896
2025-09-03 19:31:06,1357974
2025-09-03 19:31:06,1358022
2025-09-03 19:31:06,1358046
2025-09-03 19:31:06,1358137
2025-09-03 19:31:06,1358238
2025-09-03 19:31:06,1358356
2025-09-03 19:31:06,1358375
2025-09-03 19:31:06,1358389
2025-09-03 19:31:06,1358549
2025-09-03 19:31:06,1358463
2025-09-03 19:31:06,1358484
2025-09-03 19:31:06,1358624
2025-09-03 19:31:06,1358728
2025-09-03 19:31:06,1358746
2025-09-03 19:31:06,1358755
2025-09-03 19:31:06,1358874
2025-09-03 19:31:06,1358906
2025-09-03 19:31:06,1358880
2025-09-03 19:31:06,1358958
2025-09-03 19:31:06,1358709
2025-09-03 19:31:06,1358406
2025-09-03 19:31:06,1358022
2025-09-03 19:31:06,1357631
2025-09-03 19:31:06,1357231
2025-09-03 19:31:06,1356849
2025-09-03 19:31:06,1356416
2025-09-03 19:31:06,1356194
2025-09-03 19:31:06,1355923
2025-09-03 19:31:06,1355717
2025-09-03 19:31:06,1355503
2025-09-03 19:31:06,1355408
2025-09-03 19:31:06,1355323
2025-09-03 19:31:06,1355235
2025-09-03 19:31:06,1355176
2025-09-03 19:31:06,1355123
2025-09-03 19:31:06,1355132
2025-09-03 19:31:06,1355141
2025-09-03 19:31:06,1355218
2025-09-03 19:31:06,1355074
2025-09-03 19:31:06,1355080
2025-09-03 19:31:06,1355184
2025-09-03 19:31:06,1355107
2025-09-03 19:31:06,1355248
2025-09-03 19:31:06,1355304
2025-09-03 19:31:06,1355384
2025-09-03 19:31:06,1355475
2025-09-03 19:31:06,1355551
2025-09-03 19:31:06,1355630
2025-09-03 19:31:06,1355706
2025-09-03 19:31:06,1355638
2025-09-03 19:31:06,1355701
2025-09-03 19:31:06,1355749
2025-09-03 19:31:06,1355794
2025-09-03 19:31:06,1355730
2025-09-03 19:31:06,1355885
2025-09-03 19:31:06,1355843
2025-09-03 19:31:06,1355849
2025-09-03 19:31:06,1355894
2025-09-03 19:31:06,1355944
2025-09-03 19:31:06,1355983
2025-09-03 19:31:06,1355991
2025-09-03 19:31:06,1356075
2025-09-03 19:31:06,1356189
2025-09-03 19:31:06,1356194
2025-09-03 19:31:06,1356331
2025-09-03 19:31:06,1356344
2025-09-03 19:31:06,1356377
2025-09-03 19:31:06,1356491
2025-09-03 19:31:06,1356546
2025-09-03 19:31:06,1356644
2025-09-03 19:31:06,1356788
2025-09-03 19:31:06,1356921
2025-09-03 19:31:06,1356864
2025-09-03 19:31:06,1357005
2025-09-03 19:31:06,1357017
2025-09-03 19:31:06,1357121
2025-09-03 19:31:06,1357265
2025-09-03 19:31:06,1357273
2025-09-03 19:31:06,1357441
2025-09-03 19:31:06,1357484
2025-09-03 19:31:06,1357535
2025-09-03 19:31:06,1357559
2025-09-03 19:31:06,1357651
2025-09-03 19:31:06,1357697
2025-09-03 19:31:06,1357819
2025-09-03 19:31:06,1357801
2025-09-03 19:31:07,1357834
2025-09-03 19:31:07,1357994
2025-09-03 19:31:07,1358002
2025-09-03 19:31:07,1358023
2025-09-03 19:31:07,1358223
2025-09-03 19:31:07,1358195
2025-09-03 19:31:07,1358294
2025-09-03 19:31:07,1358272
2025-09-03 19:31:07,1358430
2025-09-03 19:31:07,1358509
2025-09-03 19:31:07,1358635
2025-09-03 19:31:07,1358631
2025-09-03 19:31:07,1358690
2025-09-03 19:31:07,1358724
2025-09-03 19:31:07,1358805
2025-09-03 19:31:07,1358687
2025-09-03 19:31:07,1358439
2025-09-03 19:31:07,1358121
2025-09-03 19:31:07,1357729
2025-09-03 19:31:07,1357367
2025-09-03 19:31:07,1356936
2025-09-03 19:31:07,1356499
2025-09-03 19:31:07,1356152
2025-09-03 19:31:07,1355822
2025-09-03 19:31:07,1355549
2025-09-03 19:31:07,1355327
2025-09-03 19:31:07,1355253
2025-09-03 19:31:07,1355142
2025-09-03 19:31:07,1355091
2025-09-03 19:31:07,1355023
2025-09-03 19:31:07,1354968
2025-09-03 19:31:07,1354976
2025-09-03 19:31:07,1354943
2025-09-03 19:31:07,1355032
2025-09-03 19:31:07,1354999
2025-09-03 19:31:07,1355059
2025-09-03 19:31:07,1355078
2025-09-03 19:31:07,1355055
2025-09-03 19:31:07,1355093
2025-09-03 19:31:07,1355178
2025-09-03 19:31:07,1355271
2025-09-03 19:31:07,1355408
2025-09-03 19:31:07,1355482
2025-09-03 19:31:07,1355578
2025-09-03 19:31:07,1355558
2025-09-03 19:31:07,1355638
2025-09-03 19:31:07,1355614
2025-09-03 19:31:07,1355585
2025-09-03 19:31:07,1355705
2025-09-03 19:31:07,1355727
2025-09-03 19:31:07,1355702
2025-09-03 19:31:07,1355784
2025-09-03 19:31:07,1355827
2025-09-03 19:31:07,1355755
2025-09-03 19:31:07,1355828
2025-09-03 19:31:07,1355845
2025-09-03 19:31:07,1355850
2025-09-03 19:31:07,1355913
2025-09-03 19:31:07,1356008
2025-09-03 19:31:07,1356100
2025-09-03 19:31:07,1356125
2025-09-03 19:31:07,1356200
2025-09-03 19:31:07,1356272
2025-09-03 19:31:07,1356350
2025-09-03 19:31:07,1356447
2025-09-03 19:31:07,1356610
2025-09-03 19:31:07,1356640
2025-09-03 19:31:07,1356682
2025-09-03 19:31:07,1356861
2025-09-03 19:31:07,1356917
2025-09-03 19:31:07,1356994
2025-09-03 19:31:07,1357089
2025-09-03 19:31:07,1357204
2025-09-03 19:31:07,1357141
2025-09-03 19:31:07,1357303
2025-09-03 19:31:07,1357408
2025-09-03 19:31:07,1357453
2025-09-03 19:31:07,1357574
2025-09-03 19:31:07,1357616
2025-09-03 19:31:07,1357595
2025-09-03 19:31:07,1357757
2025-09-03 19:31:07,1357810
2025-09-03 19:31:07,1357900
2025-09-03 19:31:07,1357964
2025-09-03 19:31:07,1357972
2025-09-03 19:31:07,1357974
2025-09-03 19:31:07,1358114
2025-09-03 19:31:07,1358100
2025-09-03 19:31:07,1358287
2025-09-03 19:31:07,1358216
2025-09-03 19:31:07,1358347
2025-09-03 19:31:07,1358359
2025-09-03 19:31:07,1358562
2025-09-03 19:31:07,1358546
2025-09-03 19:31:07,1358599
2025-09-03 19:31:07,1358679
2025-09-03 19:31:07,1358727
2025-09-03 19:31:07,1358846
2025-09-03 19:31:07,1358785
2025-09-03 19:31:07,1358524
2025-09-03 19:31:08,1358215
2025-09-03 19:31:08,1357793
2025-09-03 19:31:08,1357471
2025-09-03 19:31:08,1357051
2025-09-03 19:31:08,1356537
2025-09-03 19:31:08,1356214
2025-09-03 19:31:08,1355852
2025-09-03 19:31:08,1355617
2025-09-03 19:31:08,1355437
2025-09-03 19:31:08,1355347
2025-09-03 19:31:08,1355083
2025-09-03 19:31:08,1355004
2025-09-03 19:31:08,1354985
2025-09-03 19:31:08,1354957
2025-09-03 19:31:08,1354968
2025-09-03 19:31:08,1354960
2025-09-03 19:31:08,1354966
2025-09-03 19:31:08,1355000
2025-09-03 19:31:08,1355011
2025-09-03 19:31:08,1355014
2025-09-03 19:31:08,1355057
2025-09-03 19:31:08,1355084
2025-09-03 19:31:08,1355115
2025-09-03 19:31:08,1355247
2025-09-03 19:31:08,1355322
2025-09-03 19:31:08,1355439
2025-09-03 19:31:08,1355557
2025-09-03 19:31:08,1355599
2025-09-03 19:31:08,1355547
2025-09-03 19:31:08,1355677
2025-09-03 19:31:08,1355600
2025-09-03 19:31:08,1355555
2025-09-03 19:31:08,1355652
2025-09-03 19:31:08,1355693
2025-09-03 19:31:08,1355672
2025-09-03 19:31:08,1355724
2025-09-03 19:31:08,1355747
2025-09-03 19:31:08,1355798
2025-09-03 19:31:08,1355786
2025-09-03 19:31:08,1355869
2025-09-03 19:31:08,1355858
2025-09-03 19:31:08,1355955
2025-09-03 19:31:08,1356077
2025-09-03 19:31:08,1356094
2025-09-03 19:31:08,1356159
2025-09-03 19:31:08,1356227
2025-09-03 19:31:08,1356346
2025-09-03 19:31:08,1356448
2025-09-03 19:31:08,1356606
2025-09-03 19:31:08,1356548
2025-09-03 19:31:08,1356697
2025-09-03 19:31:08,1356820
2025-09-03 19:31:08,1356908
2025-09-03 19:31:08,1357037
2025-09-03 19:31:08,1357179
2025-09-03 19:31:08,1357180
2025-09-03 19:31:08,1357205
2025-09-03 19:31:08,1357349
2025-09-03 19:31:08,1357378
2025-09-03 19:31:08,1357514
2025-09-03 19:31:08,1357577
2025-09-03 19:31:08,1357656
2025-09-03 19:31:08,1357684
2025-09-03 19:31:08,1357724
2025-09-03 19:31:08,1357844
2025-09-03 19:31:08,1357931
2025-09-03 19:31:08,1357983
2025-09-03 19:31:08,1358014
2025-09-03 19:31:08,1358066
2025-09-03 19:31:08,1358074
2025-09-03 19:31:08,1358189
2025-09-03 19:31:08,1358249
2025-09-03 19:31:08,1358360
2025-09-03 19:31:08,1358403
2025-09-03 19:31:08,1358373
2025-09-03 19:31:08,1358531
2025-09-03 19:31:08,1358569
2025-09-03 19:31:08,1358692
2025-09-03 19:31:08,1358691
2025-09-03 19:31:08,1358872
2025-09-03 19:31:08,1358795
2025-09-03 19:31:08,1358926
2025-09-03 19:31:08,1358893
2025-09-03 19:31:08,1358603
2025-09-03 19:31:08,1358278
2025-09-03 19:31:08,1357884
2025-09-03 19:31:08,1357531
2025-09-03 19:31:08,1357195
2025-09-03 19:31:08,1356589
2025-09-03 19:31:08,1356271
2025-09-03 19:31:08,1355944
2025-09-03 19:31:08,1355635
2025-09-03 19:31:08,1355496
2025-09-03 19:31:08,1355281
2025-09-03 19:31:08,1355189
2025-09-03 19:31:08,1355143
2025-09-03 19:31:08,1355020
2025-09-03 19:31:08,1355051
2025-09-03 19:31:08,1355002
2025-09-03 19:31:08,1354950
2025-09-03 19:31:09,1355055
2025-09-03 19:31:09,1354996
2025-09-03 19:31:09,1355068
2025-09-03 19:31:09,1354981
2025-09-03 19:31:09,1355003
2025-09-03 19:31:09,1354919
2025-09-03 19:31:09,1355108
2025-09-03 19:31:09,1355114
2025-09-03 19:31:09,1355248
2025-09-03 19:31:09,1355360
2025-09-03 19:31:09,1355375
2025-09-03 19:31:09,1355486
2025-09-03 19:31:09,1355496
2025-09-03 19:31:09,1355517
2025-09-03 19:31:09,1355507
2025-09-03 19:31:09,1355625
2025-09-03 19:31:09,1355608
2025-09-03 19:31:09,1355616
2025-09-03 19:31:09,1355624
2025-09-03 19:31:09,1355688
2025-09-03 19:31:09,1355679
2025-09-03 19:31:09,1355659
2025-09-03 19:31:09,1355841
2025-09-03 19:31:09,1355871
2025-09-03 19:31:09,1355884
2025-09-03 19:31:09,1355937
2025-09-03 19:31:09,1355975
2025-09-03 19:31:09,1356131
2025-09-03 19:31:09,1356236
2025-09-03 19:31:09,1356198
2025-09-03 19:31:09,1356266
2025-09-03 19:31:09,1356413
2025-09-03 19:31:09,1356502
2025-09-03 19:31:09,1356480
2025-09-03 19:31:09,1356619
2025-09-03 19:31:09,1356709
2025-09-03 19:31:09,1356855
2025-09-03 19:31:09,1356912
2025-09-03 19:31:09,1356972
2025-09-03 19:31:09,1357128
2025-09-03 19:31:09,1357168
2025-09-03 19:31:09,1357163
2025-09-03 19:31:09,1357265
2025-09-03 19:31:09,1357442
2025-09-03 19:31:09,1357530
2025-09-03 19:31:09,1357623
2025-09-03 19:31:09,1357688
2025-09-03 19:31:09,1357783
2025-09-03 19:31:09,1357773
2025-09-03 19:31:09,1357903
2025-09-03 19:31:09,1357883
2025-09-03 19:31:09,1357947
2025-09-03 19:31:09,1358076
2025-09-03 19:31:09,1358154
2025-09-03 19:31:09,1358236
2025-09-03 19:31:09,1358220
2025-09-03 19:31:09,1358296
2025-09-03 19:31:09,1358362
2025-09-03 19:31:09,1358488
2025-09-03 19:31:09,1358592
2025-09-03 19:31:09,1358665
2025-09-03 19:31:09,1358735
2025-09-03 19:31:09,1358635
2025-09-03 19:31:09,1358794
2025-09-03 19:31:09,1358811
2025-09-03 19:31:09,1358851
2025-09-03 19:31:09,1358988
2025-09-03 19:31:09,1359002
2025-09-03 19:31:09,1359133
2025-09-03 19:31:09,1359130
2025-09-03 19:31:09,1359230
2025-09-03 19:31:09,1359278
2025-09-03 19:31:09,1359209
2025-09-03 19:31:09,1358917
2025-09-03 19:31:09,1358568
2025-09-03 19:31:09,1358189
2025-09-03 19:31:09,1357764
2025-09-03 19:31:09,1357372
2025-09-03 19:31:09,1356898
2025-09-03 19:31:09,1356617
2025-09-03 19:31:09,1356176
2025-09-03 19:31:09,1355896
2025-09-03 19:31:09,1355720
2025-09-03 19:31:09,1355516
2025-09-03 19:31:09,1355465
2025-09-03 19:31:09,1355344
2025-09-03 19:31:09,1355212
2025-09-03 19:31:09,1355187
2025-09-03 19:31:09,1355186
2025-09-03 19:31:09,1355087
2025-09-03 19:31:09,1355190
2025-09-03 19:31:09,1355100
2025-09-03 19:31:09,1355163
2025-09-03 19:31:09,1355145
2025-09-03 19:31:09,1355155
2025-09-03 19:31:09,1355201
2025-09-03 19:31:09,1355225
2025-09-03 19:31:09,1355318
2025-09-03 19:31:09,1355423
2025-09-03 19:31:10,1355500
2025-09-03 19:31:10,1355531
2025-09-03 19:31:10,1355577
2025-09-03 19:31:10,1355597
2025-09-03 19:31:10,1355634
2025-09-03 19:31:10,1355648
2025-09-03 19:31:10,1355747
2025-09-03 19:31:10,1355760
2025-09-03 19:31:10,1355743
2025-09-03 19:31:10,1355772
2025-09-03 19:31:10,1355756
2025-09-03 19:31:10,1355901
2025-09-03 19:31:10,1356032
2025-09-03 19:31:10,1356004
2025-09-03 19:31:10,1355965
2025-09-03 19:31:10,1356037
2025-09-03 19:31:10,1356197
2025-09-03 19:31:10,1356183
2025-09-03 19:31:10,1356208
2025-09-03 19:31:10,1356311
2025-09-03 19:31:10,1356313
2025-09-03 19:31:10,1356504
2025-09-03 19:31:10,1356554
2025-09-03 19:31:10,1356546
2025-09-03 19:31:10,1356672
2025-09-03 19:31:10,1356792
2025-09-03 19:31:10,1356893
2025-09-03 19:31:10,1356894
2025-09-03 19:31:10,1357001
2025-09-03 19:31:10,1357126
2025-09-03 19:31:10,1357164
2025-09-03 19:31:10,1357273
2025-09-03 19:31:10,1357313
2025-09-03 19:31:10,1357341
2025-09-03 19:31:10,1357451
2025-09-03 19:31:10,1357464
2025-09-03 19:31:10,1357626
2025-09-03 19:31:10,1357677
2025-09-03 19:31:10,1357792
2025-09-03 19:31:10,1357876
2025-09-03 19:31:10,1357883
2025-09-03 19:31:10,1358013
2025-09-03 19:31:10,1358061
2025-09-03 19:31:10,1358158
2025-09-03 19:31:10,1358248
2025-09-03 19:31:10,1358279
2025-09-03 19:31:10,1358249
2025-09-03 19:31:10,1358370
2025-09-03 19:31:10,1358473
2025-09-03 19:31:10,1358545
2025-09-03 19:31:10,1358567
2025-09-03 19:31:10,1358547
2025-09-03 19:31:10,1358705
2025-09-03 19:31:10,1358684
2025-09-03 19:31:10,1358757
2025-09-03 19:31:10,1358873
2025-09-03 19:31:10,1358993
2025-09-03 19:31:10,1358962
2025-09-03 19:31:10,1359060
2025-09-03 19:31:10,1359145
2025-09-03 19:31:10,1359130
2025-09-03 19:31:10,1359235
2025-09-03 19:31:10,1359350
2025-09-03 19:31:10,1359314
2025-09-03 19:31:10,1359323
2025-09-03 19:31:10,1359121
2025-09-03 19:31:10,1358883
2025-09-03 19:31:10,1358401
2025-09-03 19:31:10,1358133
2025-09-03 19:31:10,1357713
2025-09-03 19:31:10,1357264
2025-09-03 19:31:10,1356917
2025-09-03 19:31:10,1356476
2025-09-03 19:31:10,1356247
2025-09-03 19:31:10,1355988
2025-09-03 19:31:10,1355910
2025-09-03 19:31:10,1355800
2025-09-03 19:31:10,1355651
2025-09-03 19:31:10,1355641
2025-09-03 19:31:10,1355641
2025-09-03 19:31:10,1355649
2025-09-03 19:31:10,1355608
2025-09-03 19:31:10,1355717
2025-09-03 19:31:10,1355716
2025-09-03 19:31:10,1355768
2025-09-03 19:31:10,1355742
2025-09-03 19:31:10,1355733
2025-09-03 19:31:10,1355758
2025-09-03 19:31:10,1355849
2025-09-03 19:31:10,1355918
2025-09-03 19:31:10,1355980
2025-09-03 19:31:10,1356022
2025-09-03 19:31:10,1356070
2025-09-03 19:31:10,1356070
2025-09-03 19:31:10,1356172
2025-09-03 19:31:10,1356163
2025-09-03 19:31:10,1356181
2025-09-03 19:31:10,1356208
2025-09-03 19:31:10,1356280
2025-09-03 19:31:10,1356261
2025-09-03 19:31:11,1356285
2025-09-03 19:31:11,1356208
2025-09-03 19:31:11,1356281
2025-09-03 19:31:11,1356311
2025-09-03 19:31:11,1356250
2025-09-03 19:31:11,1356294
2025-09-03 19:31:11,1356419
2025-09-03 19:31:11,1356530
2025-09-03 19:31:11,1356483
2025-09-03 19:31:11,1356613
2025-09-03 19:31:11,1356751
2025-09-03 19:31:11,1356753
2025-09-03 19:31:11,1356786
2025-09-03 19:31:11,1356913
2025-09-03 19:31:11,1357009
2025-09-03 19:31:11,1357059
2025-09-03 19:31:11,1357196
2025-09-03 19:31:11,1357243
2025-09-03 19:31:11,1357375
2025-09-03 19:31:11,1357445
2025-09-03 19:31:11,1357514
2025-09-03 19:31:11,1357653
2025-09-03 19:31:11,1357691
2025-09-03 19:31:11,1357816
2025-09-03 19:31:11,1357872
2025-09-03 19:31:11,1357985
2025-09-03 19:31:11,1358094
2025-09-03 19:31:11,1358199
2025-09-03 19:31:11,1358244
2025-09-03 19:31:11,1358254
2025-09-03 19:31:11,1358366
2025-09-03 19:31:11,1358466
2025-09-03 19:31:11,1358534
2025-09-03 19:31:11,1358519
2025-09-03 19:31:11,1358583
2025-09-03 19:31:11,1358640
2025-09-03 19:31:11,1358776
2025-09-03 19:31:11,1358804
2025-09-03 19:31:11,1358923
2025-09-03 19:31:11,1358937
2025-09-03 19:31:11,1358989
2025-09-03 19:31:11,1359105
2025-09-03 19:31:11,1359049
2025-09-03 19:31:11,1359172
2025-09-03 19:31:11,1359178
2025-09-03 19:31:11,1359290
2025-09-03 19:31:11,1359348
2025-09-03 19:31:11,1359412
2025-09-03 19:31:11,1359509
2025-09-03 19:31:11,1359526
2025-09-03 19:31:11,1359610
2025-09-03 19:31:11,1359533
2025-09-03 19:31:11,1359257
2025-09-03 19:31:11,1358960
2025-09-03 19:31:11,1358640
2025-09-03 19:31:11,1358269
2025-09-03 19:31:11,1357886
2025-09-03 19:31:11,1357430
2025-09-03 19:31:11,1357046
2025-09-03 19:31:11,1356745
2025-09-03 19:31:11,1356495
2025-09-03 19:31:11,1356254
2025-09-03 19:31:11,1356166
2025-09-03 19:31:11,1356028
2025-09-03 19:31:11,1356012
2025-09-03 19:31:11,1355953
2025-09-03 19:31:11,1355997
2025-09-03 19:31:11,1355932
2025-09-03 19:31:11,1355923
2025-09-03 19:31:11,1355944
2025-09-03 19:31:11,1355979
2025-09-03 19:31:11,1356034
2025-09-03 19:31:11,1355972
2025-09-03 19:31:11,1356057
2025-09-03 19:31:11,1356077
2025-09-03 19:31:11,1356123
2025-09-03 19:31:11,1356214
2025-09-03 19:31:11,1356258
2025-09-03 19:31:11,1356332
2025-09-03 19:31:11,1356470
2025-09-03 19:31:11,1356500
2025-09-03 19:31:11,1356465
2025-09-03 19:31:11,1356459
2025-09-03 19:31:11,1356487
2025-09-03 19:31:11,1356565
2025-09-03 19:31:11,1356583
2025-09-03 19:31:11,1356539
2025-09-03 19:31:11,1356547
2025-09-03 19:31:11,1356544
2025-09-03 19:31:11,1356716
2025-09-03 19:31:11,1356643
2025-09-03 19:31:11,1356607
2025-09-03 19:31:11,1356770
2025-09-03 19:31:11,1356760
2025-09-03 19:31:11,1356746
2025-09-03 19:31:11,1356908
2025-09-03 19:31:11,1356916
2025-09-03 19:31:11,1357038
2025-09-03 19:31:11,1357033
2025-09-03 19:31:11,1357198
2025-09-03 19:31:12,1357288
2025-09-03 19:31:12,1357333
2025-09-03 19:31:12,1357412
2025-09-03 19:31:12,1357422
2025-09-03 19:31:12,1357539
2025-09-03 19:31:12,1357659
2025-09-03 19:31:12,1357665
2025-09-03 19:31:12,1357775
2025-09-03 19:31:12,1357883
2025-09-03 19:31:12,1358027
2025-09-03 19:31:12,1358037
2025-09-03 19:31:12,1358132
2025-09-03 19:31:12,1358112
2025-09-03 19:31:12,1358228
2025-09-03 19:31:12,1358353
2025-09-03 19:31:12,1358464
2025-09-03 19:31:12,1358430
2025-09-03 19:31:12,1358602
2025-09-03 19:31:12,1358563
2025-09-03 19:31:12,1358625
2025-09-03 19:31:12,1358764
2025-09-03 19:31:12,1358831
2025-09-03 19:31:12,1358780
2025-09-03 19:31:12,1358809
2025-09-03 19:31:12,1359004
2025-09-03 19:31:12,1358977
2025-09-03 19:31:12,1359074
2025-09-03 19:31:12,1359082
2025-09-03 19:31:12,1359196
2025-09-03 19:31:12,1359273
2025-09-03 19:31:12,1359368
2025-09-03 19:31:12,1359340
2025-09-03 19:31:12,1359430
2025-09-03 19:31:12,1359557
2025-09-03 19:31:12,1359547
2025-09-03 19:31:12,1359677
2025-09-03 19:31:12,1359656
2025-09-03 19:31:12,1359529
2025-09-03 19:31:12,1359224
2025-09-03 19:31:12,1358820
2025-09-03 19:31:12,1358449
2025-09-03 19:31:12,1358105
2025-09-03 19:31:12,1357628
2025-09-03 19:31:12,1357348
2025-09-03 19:31:12,1356936
2025-09-03 19:31:12,1356572
2025-09-03 19:31:12,1356393
2025-09-03 19:31:12,1356288
2025-09-03 19:31:12,1356168
2025-09-03 19:31:12,1356084
2025-09-03 19:31:12,1355935
2025-09-03 19:31:12,1355920
2025-09-03 19:31:12,1355870
2025-09-03 19:31:12,1355909
2025-09-03 19:31:12,1355951
2025-09-03 19:31:12,1355907
2025-09-03 19:31:12,1355910
2025-09-03 19:31:12,1355864
2025-09-03 19:31:12,1355902
2025-09-03 19:31:12,1355906
2025-09-03 19:31:12,1355926
2025-09-03 19:31:12,1356006
2025-09-03 19:31:12,1356105
2025-09-03 19:31:12,1356133
2025-09-03 19:31:12,1356218
2025-09-03 19:31:12,1356336
2025-09-03 19:31:12,1356360
2025-09-03 19:31:12,1356371
2025-09-03 19:31:12,1356387
2025-09-03 19:31:12,1356434
2025-09-03 19:31:12,1356369
2025-09-03 19:31:12,1356371
2025-09-03 19:31:12,1356454
2025-09-03 19:31:12,1356432
2025-09-03 19:31:12,1356427
2025-09-03 19:31:12,1356524
2025-09-03 19:31:12,1356491
2025-09-03 19:31:12,1356485
2025-09-03 19:31:12,1356599
2025-09-03 19:31:12,1356642
2025-09-03 19:31:12,1356645
2025-09-03 19:31:12,1356702
2025-09-03 19:31:12,1356839
2025-09-03 19:31:12,1356873
2025-09-03 19:31:12,1356884
2025-09-03 19:31:12,1357062
2025-09-03 19:31:12,1357070
2025-09-03 19:31:12,1357213
2025-09-03 19:31:12,1357346
2025-09-03 19:31:12,1357423
2025-09-03 19:31:12,1357470
2025-09-03 19:31:12,1357603
2025-09-03 19:31:12,1357657
2025-09-03 19:31:12,1357732
2025-09-03 19:31:12,1357851
2025-09-03 19:31:12,1357945
2025-09-03 19:31:12,1357946
2025-09-03 19:31:12,1358044
2025-09-03 19:31:12,1358180
2025-09-03 19:31:12,1358132
2025-09-03 19:31:13,1358249
2025-09-03 19:31:13,1358391
2025-09-03 19:31:13,1358425
2025-09-03 19:31:13,1358598
2025-09-03 19:31:13,1358519
2025-09-03 19:31:13,1358624
2025-09-03 19:31:13,1358594
2025-09-03 19:31:13,1358804
2025-09-03 19:31:13,1358791
2025-09-03 19:31:13,1358863
2025-09-03 19:31:13,1358958
2025-09-03 19:31:13,1359034
2025-09-03 19:31:13,1359075
2025-09-03 19:31:13,1359174
2025-09-03 19:31:13,1359195
2025-09-03 19:31:13,1359298
2025-09-03 19:31:13,1359262
2025-09-03 19:31:13,1359458
2025-09-03 19:31:13,1359439
2025-09-03 19:31:13,1359596
2025-09-03 19:31:13,1359542
2025-09-03 19:31:13,1359565
2025-09-03 19:31:13,1359678
2025-09-03 19:31:13,1359510
2025-09-03 19:31:13,1359295
2025-09-03 19:31:13,1358899
2025-09-03 19:31:13,1358544
2025-09-03 19:31:13,1358101
2025-09-03 19:31:13,1357676
2025-09-03 19:31:13,1357338
2025-09-03 19:31:13,1356838
2025-09-03 19:31:13,1356527
2025-09-03 19:31:13,1356306
2025-09-03 19:31:13,1356155
2025-09-03 19:31:13,1356012
2025-09-03 19:31:13,1355983
2025-09-03 19:31:13,1355890
2025-09-03 19:31:13,1355815
2025-09-03 19:31:13,1355762
2025-09-03 19:31:13,1355784
2025-09-03 19:31:13,1355786
2025-09-03 19:31:13,1355779
2025-09-03 19:31:13,1355771
2025-09-03 19:31:13,1355768
2025-09-03 19:31:13,1355698
2025-09-03 19:31:13,1355850
2025-09-03 19:31:13,1355732
2025-09-03 19:31:13,1355782
2025-09-03 19:31:13,1355966
2025-09-03 19:31:13,1355992
2025-09-03 19:31:13,1356033
2025-09-03 19:31:13,1356106
2025-09-03 19:31:13,1356158
2025-09-03 19:31:13,1356246
2025-09-03 19:31:13,1356257
2025-09-03 19:31:13,1356311
2025-09-03 19:31:13,1356329
2025-09-03 19:31:13,1356282
2025-09-03 19:31:13,1356314
2025-09-03 19:31:13,1356356
2025-09-03 19:31:13,1356423
2025-09-03 19:31:13,1356407
2025-09-03 19:31:13,1356474
2025-09-03 19:31:13,1356509
2025-09-03 19:31:13,1356488
2025-09-03 19:31:13,1356549
2025-09-03 19:31:13,1356628
2025-09-03 19:31:13,1356681
2025-09-03 19:31:13,1356779
2025-09-03 19:31:13,1356770
2025-09-03 19:31:13,1356821
2025-09-03 19:31:13,1356967
2025-09-03 19:31:13,1357057
2025-09-03 19:31:13,1357032
2025-09-03 19:31:13,1357233
2025-09-03 19:31:13,1357271
2025-09-03 19:31:13,1357343
2025-09-03 19:31:13,1357543
2025-09-03 19:31:13,1357573
2025-09-03 19:31:13,1357643
2025-09-03 19:31:13,1357803
2025-09-03 19:31:13,1357798
2025-09-03 19:31:13,1357984
2025-09-03 19:31:13,1357960
2025-09-03 19:31:13,1358057
2025-09-03 19:31:13,1358181
2025-09-03 19:31:13,1358201
2025-09-03 19:31:13,1358385
2025-09-03 19:31:13,1358364
2025-09-03 19:31:13,1358482
2025-09-03 19:31:13,1358508
2025-09-03 19:31:13,1358535
2025-09-03 19:31:13,1358679
2025-09-03 19:31:13,1358804
2025-09-03 19:31:13,1358863
2025-09-03 19:31:13,1358863
2025-09-03 19:31:13,1358895
2025-09-03 19:31:13,1358971
2025-09-03 19:31:13,1359041
2025-09-03 19:31:14,1358977
2025-09-03 19:31:14,1359151
2025-09-03 19:31:14,1359227
2025-09-03 19:31:14,1359281
2025-09-03 19:31:14,1359384
2025-09-03 19:31:14,1359478
2025-09-03 19:31:14,1359492
2025-09-03 19:31:14,1359563
2025-09-03 19:31:14,1359629
2025-09-03 19:31:14,1359672
2025-09-03 19:31:14,1359751
2025-09-03 19:31:14,1359785
2025-09-03 19:31:14,1359719
2025-09-03 19:31:14,1359554
2025-09-03 19:31:14,1359241
2025-09-03 19:31:14,1358782
2025-09-03 19:31:14,1358358
2025-09-03 19:31:14,1357995
2025-09-03 19:31:14,1357627
2025-09-03 19:31:14,1357165
2025-09-03 19:31:14,1356873
2025-09-03 19:31:14,1356643
2025-09-03 19:31:14,1356424
2025-09-03 19:31:14,1356303
2025-09-03 19:31:14,1356237
2025-09-03 19:31:14,1356252
2025-09-03 19:31:14,1356122
2025-09-03 19:31:14,1356178
2025-09-03 19:31:14,1356153
2025-09-03 19:31:14,1356096
2025-09-03 19:31:14,1356142
2025-09-03 19:31:14,1356125
2025-09-03 19:31:14,1356141
2025-09-03 19:31:14,1356108
2025-09-03 19:31:14,1356172
2025-09-03 19:31:14,1356218
2025-09-03 19:31:14,1356213
2025-09-03 19:31:14,1356239
2025-09-03 19:31:14,1356359
2025-09-03 19:31:14,1356425
2025-09-03 19:31:14,1356543
2025-09-03 19:31:14,1356484
2025-09-03 19:31:14,1356586
2025-09-03 19:31:14,1356658
2025-09-03 19:31:14,1356573
2025-09-03 19:31:14,1356623
2025-09-03 19:31:14,1356699
2025-09-03 19:31:14,1356637
2025-09-03 19:31:14,1356714
2025-09-03 19:31:14,1356650
2025-09-03 19:31:14,1356806
2025-09-03 19:31:14,1356686
2025-09-03 19:31:14,1356766
2025-09-03 19:31:14,1356758
2025-09-03 19:31:14,1356811
2025-09-03 19:31:14,1356902
2025-09-03 19:31:14,1356978
2025-09-03 19:31:14,1357000
2025-09-03 19:31:14,1357102
2025-09-03 19:31:14,1357253
2025-09-03 19:31:14,1357241
2025-09-03 19:31:14,1357434
2025-09-03 19:31:14,1357399
2025-09-03 19:31:14,1357507
2025-09-03 19:31:14,1357673
2025-09-03 19:31:14,1357749
2025-09-03 19:31:14,1357856
2025-09-03 19:31:14,1357969
2025-09-03 19:31:14,1357953
2025-09-03 19:31:14,1358112
2025-09-03 19:31:14,1358260
2025-09-03 19:31:14,1358211
2025-09-03 19:31:14,1358374
2025-09-03 19:31:14,1358331
2025-09-03 19:31:14,1358499
2025-09-03 19:31:14,1358609
2025-09-03 19:31:14,1358636
2025-09-03 19:31:14,1358675
2025-09-03 19:31:14,1358778
2025-09-03 19:31:14,1358819
2025-09-03 19:31:14,1358963
2025-09-03 19:31:14,1359001
2025-09-03 19:31:14,1358926
2025-09-03 19:31:14,1359006
2025-09-03 19:31:14,1359099
2025-09-03 19:31:14,1359205
2025-09-03 19:31:14,1359305
2025-09-03 19:31:14,1359316
2025-09-03 19:31:14,1359410
2025-09-03 19:31:14,1359457
2025-09-03 19:31:14,1359464
2025-09-03 19:31:14,1359487
2025-09-03 19:31:14,1359557
2025-09-03 19:31:14,1359611
2025-09-03 19:31:14,1359751
2025-09-03 19:31:14,1359787
2025-09-03 19:31:14,1359798
2025-09-03 19:31:14,1359850
2025-09-03 19:31:14,1359641
2025-09-03 19:31:14,1359304
2025-09-03 19:31:15,1358858
2025-09-03 19:31:15,1358507
2025-09-03 19:31:15,1358077
2025-09-03 19:31:15,1357693
2025-09-03 19:31:15,1357271
2025-09-03 19:31:15,1356978
2025-09-03 19:31:15,1356678
2025-09-03 19:31:15,1356496
2025-09-03 19:31:15,1356356
2025-09-03 19:31:15,1356302
2025-09-03 19:31:15,1356281
2025-09-03 19:31:15,1356254
2025-09-03 19:31:15,1356156
2025-09-03 19:31:15,1356195
2025-09-03 19:31:15,1356159
2025-09-03 19:31:15,1356201
2025-09-03 19:31:15,1356120
2025-09-03 19:31:15,1356206
2025-09-03 19:31:15,1356258
2025-09-03 19:31:15,1356181
2025-09-03 19:31:15,1356199
2025-09-03 19:31:15,1356333
2025-09-03 19:31:15,1356454
2025-09-03 19:31:15,1356427
2025-09-03 19:31:15,1356455
2025-09-03 19:31:15,1356575
2025-09-03 19:31:15,1356609
2025-09-03 19:31:15,1356720
2025-09-03 19:31:15,1356735
2025-09-03 19:31:15,1356789
2025-09-03 19:31:15,1356738
2025-09-03 19:31:15,1356694
2025-09-03 19:31:15,1356754
2025-09-03 19:31:15,1356766
2025-09-03 19:31:15,1356695
2025-09-03 19:31:15,1356809
2025-09-03 19:31:15,1356774
2025-09-03 19:31:15,1356768
2025-09-03 19:31:15,1356859
2025-09-03 19:31:15,1356900
2025-09-03 19:31:15,1356891
2025-09-03 19:31:15,1356942
2025-09-03 19:31:15,1357007
2025-09-03 19:31:15,1357193
2025-09-03 19:31:15,1357162
2025-09-03 19:31:15,1357362
2025-09-03 19:31:15,1357371
2025-09-03 19:31:15,1357500
2025-09-03 19:31:15,1357547
2025-09-03 19:31:15,1357624
2025-09-03 19:31:15,1357718
2025-09-03 19:31:15,1357775
2025-09-03 19:31:15,1357899
2025-09-03 19:31:15,1358006
2025-09-03 19:31:15,1358037
2025-09-03 19:31:15,1358067
2025-09-03 19:31:15,1358187
2025-09-03 19:31:15,1358273
2025-09-03 19:31:15,1358365
2025-09-03 19:31:15,1358419
2025-09-03 19:31:15,1358533
2025-09-03 19:31:15,1358609
2025-09-03 19:31:15,1358573
2025-09-03 19:31:15,1358715
2025-09-03 19:31:15,1358779
2025-09-03 19:31:15,1358803
2025-09-03 19:31:15,1358889
2025-09-03 19:31:15,1358943
2025-09-03 19:31:15,1358917
2025-09-03 19:31:15,1358988
2025-09-03 19:31:15,1359035
2025-09-03 19:31:15,1359052
2025-09-03 19:31:15,1359159
2025-09-03 19:31:15,1359193
2025-09-03 19:31:15,1359280
2025-09-03 19:31:15,1359423
2025-09-03 19:31:15,1359521
2025-09-03 19:31:15,1359507
2025-09-03 19:31:15,1359499
2025-09-03 19:31:15,1359587
2025-09-03 19:31:15,1359472
2025-09-03 19:31:15,1359097
2025-09-03 19:31:15,1358708
2025-09-03 19:31:15,1358349
2025-09-03 19:31:15,1357974
2025-09-03 19:31:15,1357432
2025-09-03 19:31:15,1357149
2025-09-03 19:31:15,1356673
2025-09-03 19:31:15,1356418
2025-09-03 19:31:15,1356200
2025-09-03 19:31:15,1356070
2025-09-03 19:31:15,1355872
2025-09-03 19:31:15,1355776
2025-09-03 19:31:15,1355719
2025-09-03 19:31:15,1355738
2025-09-03 19:31:15,1355629
2025-09-03 19:31:15,1355732
2025-09-03 19:31:15,1355732
2025-09-03 19:31:15,1355709
2025-09-03 19:31:15,1355842
2025-09-03 19:31:15,1355845
2025-09-03 19:31:16,1355785
2025-09-03 19:31:16,1355858
2025-09-03 19:31:16,1355902
2025-09-03 19:31:16,1355920
2025-09-03 19:31:16,1355943
2025-09-03 19:31:16,1356115
2025-09-03 19:31:16,1356087
2025-09-03 19:31:16,1356258
2025-09-03 19:31:16,1356289
2025-09-03 19:31:16,1356325
2025-09-03 19:31:16,1356342
2025-09-03 19:31:16,1356368
2025-09-03 19:31:16,1356422
2025-09-03 19:31:16,1356429
2025-09-03 19:31:16,1356427
2025-09-03 19:31:16,1356481
2025-09-03 19:31:16,1356561
2025-09-03 19:31:16,1356576
2025-09-03 19:31:16,1356570
2025-09-03 19:31:16,1356639
2025-09-03 19:31:16,1356640
2025-09-03 19:31:16,1356763
2025-09-03 19:31:16,1356840
2025-09-03 19:31:16,1356815
2025-09-03 19:31:16,1356966
2025-09-03 19:31:16,1357065
2025-09-03 19:31:16,1357120
2025-09-03 19:31:16,1357153
2025-09-03 19:31:16,1357278
2025-09-03 19:31:16,1357427
2025-09-03 19:31:16,1357548
2025-09-03 19:31:16,1357687
2025-09-03 19:31:16,1357718
2025-09-03 19:31:16,1357787
2025-09-03 19:31:16,1357985
2025-09-03 19:31:16,1358090
2025-09-03 19:31:16,1358157
2025-09-03 19:31:16,1358278
2025-09-03 19:31:16,1358320
2025-09-03 19:31:16,1358496
2025-09-03 19:31:16,1358479
2025-09-03 19:31:16,1358587
2025-09-03 19:31:16,1358660
2025-09-03 19:31:16,1358780
2025-09-03 19:31:16,1358855
2025-09-03 19:31:16,1358969
2025-09-03 19:31:16,1359008
2025-09-03 19:31:16,1359094
2025-09-03 19:31:16,1359178
2025-09-03 19:31:16,1359214
2025-09-03 19:31:16,1359276
2025-09-03 19:31:16,1359367
2025-09-03 19:31:16,1359440
2025-09-03 19:31:16,1359501
2025-09-03 19:31:16,1359440
2025-09-03 19:31:16,1359609
2025-09-03 19:31:16,1359724
2025-09-03 19:31:16,1359840
2025-09-03 19:31:16,1359841
2025-09-03 19:31:16,1359994
2025-09-03 19:31:16,1359999
2025-09-03 19:31:16,1359974
2025-09-03 19:31:16,1360097
2025-09-03 19:31:16,1360113
2025-09-03 19:31:16,1360145
2025-09-03 19:31:16,1359934
2025-09-03 19:31:16,1359598
2025-09-03 19:31:16,1359153
2025-09-03 19:31:16,1358753
2025-09-03 19:31:16,1358332
2025-09-03 19:31:16,1357996
2025-09-03 19:31:16,1357513
2025-09-03 19:31:16,1357188
2025-09-03 19:31:16,1356935
2025-09-03 19:31:16,1356764
2025-09-03 19:31:16,1356610
2025-09-03 19:31:16,1356475
2025-09-03 19:31:16,1356522
2025-09-03 19:31:16,1356450
2025-09-03 19:31:16,1356392
2025-09-03 19:31:16,1356447
2025-09-03 19:31:16,1356328
2025-09-03 19:31:16,1356384
2025-09-03 19:31:16,1356326
2025-09-03 19:31:16,1356303
2025-09-03 19:31:16,1356385
2025-09-03 19:31:16,1356339
2025-09-03 19:31:16,1356377
2025-09-03 19:31:16,1356390
2025-09-03 19:31:16,1356507
2025-09-03 19:31:16,1356638
2025-09-03 19:31:16,1356632
2025-09-03 19:31:16,1356675
2025-09-03 19:31:16,1356803
2025-09-03 19:31:16,1356892
2025-09-03 19:31:16,1356853
2025-09-03 19:31:16,1356819
2025-09-03 19:31:16,1356970
2025-09-03 19:31:16,1357060
2025-09-03 19:31:16,1357055
2025-09-03 19:31:17,1357064
2025-09-03 19:31:17,1357031
2025-09-03 19:31:17,1357025
2025-09-03 19:31:17,1357162
2025-09-03 19:31:17,1357160
2025-09-03 19:31:17,1357122
2025-09-03 19:31:17,1357161
2025-09-03 19:31:17,1357263
2025-09-03 19:31:17,1357459
2025-09-03 19:31:17,1357413
2025-09-03 19:31:17,1357511
2025-09-03 19:31:17,1357606
2025-09-03 19:31:17,1357670
2025-09-03 19:31:17,1357822
2025-09-03 19:31:17,1357853
2025-09-03 19:31:17,1357945
2025-09-03 19:31:17,1358069
2025-09-03 19:31:17,1358124
2025-09-03 19:31:17,1358264
2025-09-03 19:31:17,1358283
2025-09-03 19:31:17,1358484
2025-09-03 19:31:17,1358556
2025-09-03 19:31:17,1358582
2025-09-03 19:31:17,1358746
2025-09-03 19:31:07,1358888
2025-09-03 19:31:17,1358852
2025-09-03 19:31:17,1358933
2025-09-03 19:31:17,1359137
2025-09-03 19:31:17,1359136
2025-09-03 19:31:17,1359227
2025-09-03 19:31:17,1359277
2025-09-03 19:31:17,1359383
2025-09-03 19:31:17,1359385
2025-09-03 19:31:17,1359559
2025-09-03 19:31:17,1359547
2025-09-03 19:31:17,1359682
2025-09-03 19:31:17,1359648
2025-09-03 19:31:17,1359799
2025-09-03 19:31:17,1359814
2025-09-03 19:31:17,1359876
2025-09-03 19:31:17,1359909
2025-09-03 19:31:17,1359967
2025-09-03 19:31:17,1360058
2025-09-03 19:31:17,1360032
2025-09-03 19:31:17,1360174
2025-09-03 19:31:17,1360342
2025-09-03 19:31:17,1360339
2025-09-03 19:31:17,1360380
2025-09-03 19:31:17,1360448
2025-09-03 19:31:17,1360506
2025-09-03 19:31:17,1360606
2025-09-03 19:31:17,1360611
2025-09-03 19:31:17,1360612
2025-09-03 19:31:17,1360398
2025-09-03 19:31:17,1360075
2025-09-03 19:31:17,1359603
2025-09-03 19:31:17,1359198
2025-09-03 19:31:17,1358766
2025-09-03 19:31:17,1358421
2025-09-03 19:31:17,1357938
2025-09-03 19:31:17,1357646
2025-09-03 19:31:17,1357403
2025-09-03 19:31:17,1357168
2025-09-03 19:31:17,1357105
2025-09-03 19:31:17,1356969
2025-09-03 19:31:17,1356893
2025-09-03 19:31:17,1356857
2025-09-03 19:31:17,1356781
2025-09-03 19:31:17,1356821
2025-09-03 19:31:17,1356785
2025-09-03 19:31:17,1356766
2025-09-03 19:31:17,1356827
2025-09-03 19:31:17,1356721
2025-09-03 19:31:17,1356785
2025-09-03 19:31:17,1356851
2025-09-03 19:31:17,1356813
2025-09-03 19:31:17,1356844
2025-09-03 19:31:17,1356873
2025-09-03 19:31:17,1356939
2025-09-03 19:31:17,1357059
2025-09-03 19:31:17,1357010
2025-09-03 19:31:17,1357172
2025-09-03 19:31:17,1357122
2025-09-03 19:31:17,1357197
2025-09-03 19:31:17,1357296
2025-09-03 19:31:17,1357205
2025-09-03 19:31:17,1357229
2025-09-03 19:31:17,1357338
2025-09-03 19:31:17,1357294
2025-09-03 19:31:17,1357294
2025-09-03 19:31:17,1357287
2025-09-03 19:31:17,1357319
2025-09-03 19:31:17,1357301
2025-09-03 19:31:17,1357352
2025-09-03 19:31:17,1357507
2025-09-03 19:31:17,1357517
2025-09-03 19:31:17,1357527
2025-09-03 19:31:17,1357610
2025-09-03 19:31:17,1357746
2025-09-03 19:31:18,1357799
2025-09-03 19:31:18,1357820
2025-09-03 19:31:18,1357939
2025-09-03 19:31:18,1358035
2025-09-03 19:31:18,1358155
2025-09-03 19:31:18,1358279
2025-09-03 19:31:18,1358358
2025-09-03 19:31:18,1358383
2025-09-03 19:31:18,1358606
2025-09-03 19:31:18,1358668
2025-09-03 19:31:18,1358683
2025-09-03 19:31:18,1358788
2025-09-03 19:31:18,1358895
2025-09-03 19:31:18,1358887
2025-09-03 19:31:18,1358999
2025-09-03 19:31:18,1359053
2025-09-03 19:31:18,1359155
2025-09-03 19:31:18,1359220
2025-09-03 19:31:18,1359326
2025-09-03 19:31:18,1359403
2025-09-03 19:31:18,1359344
2025-09-03 19:31:18,1359493
2025-09-03 19:31:18,1359561
2025-09-03 19:31:18,1359624
2025-09-03 19:31:18,1359596
2025-09-03 19:31:18,1359759
2025-09-03 19:31:18,1359816
2025-09-03 19:31:18,1359835
2025-09-03 19:31:18,1359928
2025-09-03 19:31:18,1359988
2025-09-03 19:31:18,1360001
2025-09-03 19:31:18,1360143
2025-09-03 19:31:18,1360233
2025-09-03 19:31:18,1360209
2025-09-03 19:31:18,1360280
2025-09-03 19:31:18,1360429
2025-09-03 19:31:18,1360398
2025-09-03 19:31:18,1360248
2025-09-03 19:31:18,1360078
2025-09-03 19:31:18,1359684
2025-09-03 19:31:18,1359162
2025-09-03 19:31:18,1358918
2025-09-03 19:31:18,1358381
2025-09-03 19:31:18,1357884
2025-09-03 19:31:18,1357625
2025-09-03 19:31:18,1357246
2025-09-03 19:31:18,1357117
2025-09-03 19:31:18,1356888
2025-09-03 19:31:18,1356710
2025-09-03 19:31:18,1356717
2025-09-03 19:31:18,1356642
2025-09-03 19:31:18,1356674
2025-09-03 19:31:18,1356556
2025-09-03 19:31:18,1356657
2025-09-03 19:31:18,1356649
2025-09-03 19:31:18,1356584
2025-09-03 19:31:18,1356606
2025-09-03 19:31:18,1356648
2025-09-03 19:31:18,1356646
2025-09-03 19:31:18,1356679
2025-09-03 19:31:18,1356699
2025-09-03 19:31:18,1356726
2025-09-03 19:31:18,1356815
2025-09-03 19:31:18,1356999
2025-09-03 19:31:18,1357026
2025-09-03 19:31:18,1357032
2025-09-03 19:31:18,1357127
2025-09-03 19:31:18,1357148
2025-09-03 19:31:18,1357157
2025-09-03 19:31:18,1357131
2025-09-03 19:31:18,1357162
2025-09-03 19:31:18,1357186
2025-09-03 19:31:18,1357229
2025-09-03 19:31:18,1357218
2025-09-03 19:31:18,1357169
2025-09-03 19:31:18,1357235
2025-09-03 19:31:18,1357238
2025-09-03 19:31:18,1357223
2025-09-03 19:31:18,1357325
2025-09-03 19:31:18,1357381
2025-09-03 19:31:18,1357467
2025-09-03 19:31:18,1357583
2025-09-03 19:31:18,1357679
2025-09-03 19:31:18,1357643
2025-09-03 19:31:18,1357797
2025-09-03 19:31:18,1357914
2025-09-03 19:31:18,1357957
2025-09-03 19:31:18,1358014
2025-09-03 19:31:18,1358206
2025-09-03 19:31:18,1358304
2025-09-03 19:31:18,1358323
2025-09-03 19:31:18,1358447
2025-09-03 19:31:18,1358451
2025-09-03 19:31:18,1358653
2025-09-03 19:31:18,1358715
2025-09-03 19:31:18,1358776
2025-09-03 19:31:18,1358811
2025-09-03 19:31:18,1358888
2025-09-03 19:31:18,1358976
2025-09-03 19:31:18,1359083
2025-09-03 19:31:19,1359158
2025-09-03 19:31:19,1359277
2025-09-03 19:31:19,1359391
2025-09-03 19:31:19,1359388
2025-09-03 19:31:19,1359511
2025-09-03 19:31:19,1359556
2025-09-03 19:31:19,1359653
2025-09-03 19:31:19,1359668
2025-09-03 19:31:19,1359728
2025-09-03 19:31:19,1359818
2025-09-03 19:31:19,1359799
2025-09-03 19:31:19,1359901
2025-09-03 19:31:19,1359993
2025-09-03 19:31:19,1360028
2025-09-03 19:31:19,1360135
2025-09-03 19:31:19,1360236
2025-09-03 19:31:19,1360346
2025-09-03 19:31:19,1360373
2025-09-03 19:31:19,1360441
2025-09-03 19:31:19,1360426
2025-09-03 19:31:19,1360419
2025-09-03 19:31:19,1360172
2025-09-03 19:31:19,1359890
2025-09-03 19:31:19,1359589
2025-09-03 19:31:19,1359185
2025-09-03 19:31:19,1358747
2025-09-03 19:31:19,1358312
2025-09-03 19:31:19,1357864
2025-09-03 19:31:19,1357568
2025-09-03 19:31:19,1357213
2025-09-03 19:31:19,1356986
2025-09-03 19:31:19,1356930
2025-09-03 19:31:19,1356736
2025-09-03 19:31:19,1356612
2025-09-03 19:31:19,1356643
2025-09-03 19:31:19,1356594
2025-09-03 19:31:19,1356569
2025-09-03 19:31:19,1356604
2025-09-03 19:31:19,1356514
2025-09-03 19:31:19,1356543
2025-09-03 19:31:19,1356559
2025-09-03 19:31:19,1356533
2025-09-03 19:31:19,1356507
2025-09-03 19:31:19,1356511
2025-09-03 19:31:19,1356548
2025-09-03 19:31:19,1356654
2025-09-03 19:31:19,1356669
2025-09-03 19:31:19,1356803
2025-09-03 19:31:19,1356865
2025-09-03 19:31:19,1356937
2025-09-03 19:31:19,1356960
2025-09-03 19:31:19,1357062
2025-09-03 19:31:19,1356946
2025-09-03 19:31:19,1357064
2025-09-03 19:31:19,1357099
2025-09-03 19:31:19,1357126
2025-09-03 19:31:19,1357142
2025-09-03 19:31:19,1357098
2025-09-03 19:31:19,1357071
2025-09-03 19:31:19,1357203
2025-09-03 19:31:19,1357178
2025-09-03 19:31:19,1357234
2025-09-03 19:31:19,1357307
2025-09-03 19:31:19,1357250
2025-09-03 19:31:19,1357336
2025-09-03 19:31:19,1357434
2025-09-03 19:31:19,1357515
2025-09-03 19:31:19,1357588
2025-09-03 19:31:19,1357612
2025-09-03 19:31:19,1357768
2025-09-03 19:31:19,1357839
2025-09-03 19:31:19,1357960
2025-09-03 19:31:19,1358029
2025-09-03 19:31:19,1358090
2025-09-03 19:31:19,1358186
2025-09-03 19:31:19,1358338
2025-09-03 19:31:19,1358428
2025-09-03 19:31:19,1358492
2025-09-03 19:31:19,1358648
2025-09-03 19:31:19,1358658
2025-09-03 19:31:19,1358743
2025-09-03 19:31:19,1358821
2025-09-03 19:31:19,1358977
2025-09-03 19:31:19,1359075
2025-09-03 19:31:19,1359131
2025-09-03 19:31:19,1359187
2025-09-03 19:31:19,1359235
2025-09-03 19:31:19,1359284
2025-09-03 19:31:19,1359369
2025-09-03 19:31:19,1359465
2025-09-03 19:31:19,1359532
2025-09-03 19:31:19,1359530
2025-09-03 19:31:19,1359692
2025-09-03 19:31:19,1359811
2025-09-03 19:31:19,1359743
2025-09-03 19:31:19,1359829
2025-09-03 19:31:19,1359962
2025-09-03 19:31:19,1360022
2025-09-03 19:31:19,1360000
2025-09-03 19:31:19,1360194
2025-09-03 19:31:20,1360177
2025-09-03 19:31:20,1360259
2025-09-03 19:31:20,1360342
2025-09-03 19:31:20,1360389
2025-09-03 19:31:20,1360485
2025-09-03 19:31:20,1360564
2025-09-03 19:31:20,1360525
2025-09-03 19:31:20,1360541
2025-09-03 19:31:20,1360431
2025-09-03 19:31:20,1360085
2025-09-03 19:31:20,1359685
2025-09-03 19:31:20,1359193
2025-09-03 19:31:20,1358768
2025-09-03 19:31:20,1358457
2025-09-03 19:31:20,1357934
2025-09-03 19:31:20,1357603
2025-09-03 19:31:20,1357319
2025-09-03 19:31:20,1357109
2025-09-03 19:31:20,1357004
2025-09-03 19:31:20,1356817
2025-09-03 19:31:20,1356796
2025-09-03 19:31:20,1356661
2025-09-03 19:31:20,1356624
2025-09-03 19:31:20,1356677
2025-09-03 19:31:20,1356646
2025-09-03 19:31:20,1356576
2025-09-03 19:31:20,1356669
2025-09-03 19:31:20,1356543
2025-09-03 19:31:20,1356544
2025-09-03 19:31:20,1356682
2025-09-03 19:31:20,1356652
2025-09-03 19:31:20,1356664
2025-09-03 19:31:20,1356709
2025-09-03 19:31:20,1356803
2025-09-03 19:31:20,1356862
2025-09-03 19:31:20,1356964
2025-09-03 19:31:20,1356996
2025-09-03 19:31:20,1357077
2025-09-03 19:31:20,1357162
2025-09-03 19:31:20,1357089
2025-09-03 19:31:20,1357188
2025-09-03 19:31:20,1357189
2025-09-03 19:31:20,1357193
2025-09-03 19:31:20,1357288
2025-09-03 19:31:20,1357264
2025-09-03 19:31:20,1357244
2025-09-03 19:31:20,1357345
2025-09-03 19:31:20,1357238
2025-09-03 19:31:20,1357381
2025-09-03 19:31:20,1357360
2025-09-03 19:31:20,1357448
2025-09-03 19:31:20,1357507
2025-09-03 19:31:20,1357625
2025-09-03 19:31:20,1357730
2025-09-03 19:31:20,1357773
2025-09-03 19:31:20,1357916
2025-09-03 19:31:20,1357898
2025-09-03 19:31:20,1358009
2025-09-03 19:31:20,1358070
2025-09-03 19:31:20,1358215
2025-09-03 19:31:20,1358310
2025-09-03 19:31:20,1358386
2025-09-03 19:31:20,1358511
2025-09-03 19:31:20,1358677
2025-09-03 19:31:20,1358663
2025-09-03 19:31:20,1358810
2025-09-03 19:31:20,1358811
2025-09-03 19:31:20,1358956
2025-09-03 19:31:20,1359053
2025-09-03 19:31:20,1359113
2025-09-03 19:31:20,1359212
2025-09-03 19:31:20,1359196
2025-09-03 19:31:20,1359380
2025-09-03 19:31:20,1359438
2025-09-03 19:31:20,1359467
2025-09-03 19:31:20,1359586
2025-09-03 19:31:20,1359607
2025-09-03 19:31:20,1359733
2025-09-03 19:31:20,1359745
2025-09-03 19:31:20,1359805
2025-09-03 19:31:20,1359932
2025-09-03 19:31:20,1359995
2025-09-03 19:31:20,1360084
2025-09-03 19:31:20,1360134
2025-09-03 19:31:20,1360192
2025-09-03 19:31:20,1360300
2025-09-03 19:31:20,1360270
2025-09-03 19:31:20,1360318
2025-09-03 19:31:20,1360382
2025-09-03 19:31:20,1360513
2025-09-03 19:31:20,1360633
2025-09-03 19:31:20,1360689
2025-09-03 19:31:20,1360670
2025-09-03 19:31:20,1360743
2025-09-03 19:31:20,1360701
2025-09-03 19:31:20,1360348
2025-09-03 19:31:20,1360064
2025-09-03 19:31:20,1359574
2025-09-03 19:31:20,1359200
2025-09-03 19:31:21,1358807
2025-09-03 19:31:21,1358336
2025-09-03 19:31:21,1357976
2025-09-03 19:31:21,1357606
2025-09-03 19:31:21,1357342
2025-09-03 19:31:21,1357205
2025-09-03 19:31:21,1357055
2025-09-03 19:31:21,1356977
2025-09-03 19:31:21,1356900
2025-09-03 19:31:21,1356922
2025-09-03 19:31:21,1356802
2025-09-03 19:31:21,1356948
2025-09-03 19:31:21,1356922
2025-09-03 19:31:21,1356811
2025-09-03 19:31:21,1356832
2025-09-03 19:31:21,1356843
2025-09-03 19:31:21,1356928
2025-09-03 19:31:21,1356873
2025-09-03 19:31:21,1356817
2025-09-03 19:31:21,1356914
2025-09-03 19:31:21,1357059
2025-09-03 19:31:21,1357145
2025-09-03 19:31:21,1357332
2025-09-03 19:31:21,1357213
2025-09-03 19:31:21,1357290
2025-09-03 19:31:21,1357297
2025-09-03 19:31:21,1357296
2025-09-03 19:31:21,1357433
2025-09-03 19:31:21,1357404
2025-09-03 19:31:21,1357363
2025-09-03 19:31:21,1357346
2025-09-03 19:31:21,1357378
2025-09-03 19:31:21,1357426
2025-09-03 19:31:21,1357422
2025-09-03 19:31:21,1357446
2025-09-03 19:31:21,1357445
2025-09-03 19:31:21,1357572
2025-09-03 19:31:21,1357613
2025-09-03 19:31:21,1357661
2025-09-03 19:31:21,1357634
2025-09-03 19:31:21,1357761
2025-09-03 19:31:21,1357838
2025-09-03 19:31:21,1357970
2025-09-03 19:31:21,1358002
2025-09-03 19:31:21,1358154
2025-09-03 19:31:21,1358198
2025-09-03 19:31:21,1358264
2025-09-03 19:31:21,1358372
2025-09-03 19:31:21,1358448
2025-09-03 19:31:21,1358661
2025-09-03 19:31:21,1358737
2025-09-03 19:31:21,1358771
2025-09-03 19:31:21,1358805
2025-09-03 19:31:21,1358978
2025-09-03 19:31:21,1359035
2025-09-03 19:31:21,1359085
2025-09-03 19:31:21,1359244
2025-09-03 19:31:21,1359303
2025-09-03 19:31:21,1359366
2025-09-03 19:31:21,1359449
2025-09-03 19:31:21,1359455
2025-09-03 19:31:21,1359567
2025-09-03 19:31:21,1359572
2025-09-03 19:31:21,1359667
2025-09-03 19:31:21,1359699
2025-09-03 19:31:21,1359782
2025-09-03 19:31:21,1359835
2025-09-03 19:31:21,1359917
2025-09-03 19:31:21,1360070
2025-09-03 19:31:21,1360086
2025-09-03 19:31:21,1360145
2025-09-03 19:31:21,1360183
2025-09-03 19:31:21,1360283
2025-09-03 19:31:21,1360344
2025-09-03 19:31:21,1360421
2025-09-03 19:31:21,1360524
2025-09-03 19:31:21,1360364
2025-09-03 19:31:21,1360280
2025-09-03 19:31:21,1360021
2025-09-03 19:31:21,1359595
2025-09-03 19:31:21,1359205
2025-09-03 19:31:21,1358706
2025-09-03 19:31:21,1358222
2025-09-03 19:31:21,1357880
2025-09-03 19:31:21,1357503
2025-09-03 19:31:21,1357190
2025-09-03 19:31:21,1356950
2025-09-03 19:31:21,1356865
2025-09-03 19:31:21,1356788
2025-09-03 19:31:21,1356715
2025-09-03 19:31:21,1356569
2025-09-03 19:31:21,1356631
2025-09-03 19:31:21,1356744
2025-09-03 19:31:21,1356585
2025-09-03 19:31:21,1356728
2025-09-03 19:31:21,1356686
2025-09-03 19:31:21,1356736
2025-09-03 19:31:21,1356656
2025-09-03 19:31:21,1356656
2025-09-03 19:31:21,1356687
2025-09-03 19:31:22,1356782
2025-09-03 19:31:22,1356855
2025-09-03 19:31:22,1356862
2025-09-03 19:31:22,1356988
2025-09-03 19:31:22,1357034
2025-09-03 19:31:22,1357171
2025-09-03 19:31:22,1357220
2025-09-03 19:31:22,1357203
2025-09-03 19:31:22,1357120
2025-09-03 19:31:22,1357249
2025-09-03 19:31:22,1357212
2025-09-03 19:31:22,1357188
2025-09-03 19:31:22,1357276
2025-09-03 19:31:22,1357285
2025-09-03 19:31:22,1357260
2025-09-03 19:31:22,1357283
2025-09-03 19:31:22,1357339
2025-09-03 19:31:22,1357391
2025-09-03 19:31:22,1357413
2025-09-03 19:31:22,1357460
2025-09-03 19:31:22,1357531
2025-09-03 19:31:22,1357556
2025-09-03 19:31:22,1357771
2025-09-03 19:31:22,1357830
2025-09-03 19:31:22,1357833
2025-09-03 19:31:22,1358002
2025-09-03 19:31:22,1358101
2025-09-03 19:31:22,1358128
2025-09-03 19:31:22,1358229
2025-09-03 19:31:22,1358321
2025-09-03 19:31:22,1358373
2025-09-03 19:31:22,1358475
2025-09-03 19:31:22,1358610
2025-09-03 19:31:22,1358746
2025-09-03 19:31:22,1358797
2025-09-03 19:31:22,1358835
2025-09-03 19:31:22,1358874
2025-09-03 19:31:22,1359029
2025-09-03 19:31:22,1359079
2025-09-03 19:31:22,1359176
2025-09-03 19:31:22,1359264
2025-09-03 19:31:22,1359305
2025-09-03 19:31:22,1359465
2025-09-03 19:31:22,1359483
2025-09-03 19:31:22,1359485
2025-09-03 19:31:22,1359506
2025-09-03 19:31:22,1359665
2025-09-03 19:31:22,1359721
2025-09-03 19:31:22,1359747
2025-09-03 19:31:22,1359853
2025-09-03 19:31:22,1359957
2025-09-03 19:31:22,1359983
2025-09-03 19:31:22,1360071
2025-09-03 19:31:22,1360166
2025-09-03 19:31:22,1360157
2025-09-03 19:31:22,1360224
2025-09-03 19:31:22,1360220
2025-09-03 19:31:22,1359823
2025-09-03 19:31:22,1359386
2025-09-03 19:31:22,1358981
2025-09-03 19:31:22,1358604
2025-09-03 19:31:22,1358060
2025-09-03 19:31:22,1357581
2025-09-03 19:31:22,1357210
2025-09-03 19:31:22,1356882
2025-09-03 19:31:22,1356607
2025-09-03 19:31:22,1356527
2025-09-03 19:31:22,1356396
2025-09-03 19:31:22,1356370
2025-09-03 19:31:22,1356210
2025-09-03 19:31:22,1356178
2025-09-03 19:31:22,1356069
2025-09-03 19:31:22,1356233
2025-09-03 19:31:22,1356241
2025-09-03 19:31:22,1356192
2025-09-03 19:31:22,1356150
2025-09-03 19:31:22,1356103
2025-09-03 19:31:22,1356128
2025-09-03 19:31:22,1356237
2025-09-03 19:31:22,1356212
2025-09-03 19:31:22,1356251
2025-09-03 19:31:22,1356339
2025-09-03 19:31:22,1356472
2025-09-03 19:31:22,1356535
2025-09-03 19:31:22,1356544
2025-09-03 19:31:22,1356679
2025-09-03 19:31:22,1356650
2025-09-03 19:31:22,1356738
2025-09-03 19:31:22,1356663
2025-09-03 19:31:22,1356759
2025-09-03 19:31:22,1356804
2025-09-03 19:31:22,1356769
2025-09-03 19:31:22,1356711
2025-09-03 19:31:22,1356837
2025-09-03 19:31:22,1356799
2025-09-03 19:31:22,1356853
2025-09-03 19:31:22,1356851
2025-09-03 19:31:22,1356862
2025-09-03 19:31:22,1356971
2025-09-03 19:31:22,1357083
2025-09-03 19:31:23,1357082
2025-09-03 19:31:23,1357180
2025-09-03 19:31:23,1357268
2025-09-03 19:31:23,1357434
2025-09-03 19:31:23,1357394
2025-09-03 19:31:23,1357510
2025-09-03 19:31:23,1357721
2025-09-03 19:31:23,1357698
2025-09-03 19:31:23,1357802
2025-09-03 19:31:23,1357922
2025-09-03 19:31:23,1358146
2025-09-03 19:31:23,1358103
2025-09-03 19:31:23,1358222
2025-09-03 19:31:23,1358380
2025-09-03 19:31:23,1358428
2025-09-03 19:31:23,1358462
2025-09-03 19:31:23,1358641
2025-09-03 19:31:23,1358642
2025-09-03 19:31:23,1358793
2025-09-03 19:31:23,1358904
2025-09-03 19:31:23,1358955
2025-09-03 19:31:23,1358937
2025-09-03 19:31:23,1359024
2025-09-03 19:31:23,1359243
2025-09-03 19:31:23,1359261
2025-09-03 19:31:23,1359305
2025-09-03 19:31:23,1359410
2025-09-03 19:31:23,1359468
2025-09-03 19:31:23,1359535
2025-09-03 19:31:23,1359549
2025-09-03 19:31:23,1359620
2025-09-03 19:31:23,1359695
2025-09-03 19:31:23,1359820
2025-09-03 19:31:23,1359845
2025-09-03 19:31:23,1359876
2025-09-03 19:31:23,1360055
2025-09-03 19:31:23,1360084
2025-09-03 19:31:23,1359968
2025-09-03 19:31:23,1359683
2025-09-03 19:31:23,1359295
2025-09-03 19:31:23,1358813
2025-09-03 19:31:23,1358314
2025-09-03 19:31:23,1357772
2025-09-03 19:31:23,1357362
2025-09-03 19:31:23,1356926
2025-09-03 19:31:23,1356673
2025-09-03 19:31:23,1356365
2025-09-03 19:31:23,1356220
2025-09-03 19:31:23,1356149
2025-09-03 19:31:23,1356003
2025-09-03 19:31:23,1355769
2025-09-03 19:31:23,1355809
2025-09-03 19:31:23,1355801
2025-09-03 19:31:23,1355748
2025-09-03 19:31:23,1355750
2025-09-03 19:31:23,1355797
2025-09-03 19:31:23,1355709
2025-09-03 19:31:23,1355767
2025-09-03 19:31:23,1355800
2025-09-03 19:31:23,1355766
2025-09-03 19:31:23,1355780
2025-09-03 19:31:23,1355803
2025-09-03 19:31:23,1355922
2025-09-03 19:31:23,1355999
2025-09-03 19:31:23,1356084
2025-09-03 19:31:23,1356153
2025-09-03 19:31:23,1356196
2025-09-03 19:31:23,1356239
2025-09-03 19:31:23,1356230
2025-09-03 19:31:23,1356334
2025-09-03 19:31:23,1356294
2025-09-03 19:31:23,1356339
2025-09-03 19:31:23,1356397
2025-09-03 19:31:23,1356322
2025-09-03 19:31:23,1356339
2025-09-03 19:31:23,1356429
2025-09-03 19:31:23,1356495
2025-09-03 19:31:23,1356531
2025-09-03 19:31:23,1356570
2025-09-03 19:31:23,1356428
2025-09-03 19:31:23,1356682
2025-09-03 19:31:23,1356669
2025-09-03 19:31:23,1356664
2025-09-03 19:31:23,1356883
2025-09-03 19:31:23,1356902
2025-09-03 19:31:23,1356965
2025-09-03 19:31:23,1357100
2025-09-03 19:31:23,1357264
2025-09-03 19:31:23,1357242
2025-09-03 19:31:23,1357427
2025-09-03 19:31:23,1357507
2025-09-03 19:31:23,1357523
2025-09-03 19:31:23,1357729
2025-09-03 19:31:23,1357827
2025-09-03 19:31:23,1357905
2025-09-03 19:31:23,1357983
2025-09-03 19:31:23,1358058
2025-09-03 19:31:23,1358164
2025-09-03 19:31:23,1358197
2025-09-03 19:31:23,1358352
2025-09-03 19:31:24,1358444
2025-09-03 19:31:24,1358515
2025-09-03 19:31:24,1358632
2025-09-03 19:31:24,1358667
2025-09-03 19:31:24,1358701
2025-09-03 19:31:24,1358888
2025-09-03 19:31:24,1358873
2025-09-03 19:31:24,1358938
2025-09-03 19:31:24,1359080
2025-09-03 19:31:24,1359167
2025-09-03 19:31:24,1359185
2025-09-03 19:31:24,1359298
2025-09-03 19:31:24,1359318
2025-09-03 19:31:24,1359475
2025-09-03 19:31:24,1359570
2025-09-03 19:31:24,1359568
2025-09-03 19:31:24,1359682
2025-09-03 19:31:24,1359644
2025-09-03 19:31:24,1359594
2025-09-03 19:31:24,1359280
2025-09-03 19:31:24,1358945
2025-09-03 19:31:24,1358526
2025-09-03 19:31:24,1358078
2025-09-03 19:31:24,1357518
2025-09-03 19:31:24,1357021
2025-09-03 19:31:24,1356619
2025-09-03 19:31:24,1356351
2025-09-03 19:31:24,1356134
2025-09-03 19:31:24,1355931
2025-09-03 19:31:24,1355781
2025-09-03 19:31:24,1355679
2025-09-03 19:31:24,1355608
2025-09-03 19:31:24,1355493
2025-09-03 19:31:24,1355475
2025-09-03 19:31:24,1355464
2025-09-03 19:31:24,1355420
2025-09-03 19:31:24,1355438
2025-09-03 19:31:24,1355410
2025-09-03 19:31:24,1355444
2025-09-03 19:31:24,1355416
2025-09-03 19:31:24,1355534
2025-09-03 19:31:24,1355550
2025-09-03 19:31:24,1355533
2025-09-03 19:31:24,1355617
2025-09-03 19:31:24,1355722
2025-09-03 19:31:24,1355801
2025-09-03 19:31:24,1355922
2025-09-03 19:31:24,1356033
2025-09-03 19:31:24,1356065
2025-09-03 19:31:24,1356080
2025-09-03 19:31:24,1356138
2025-09-03 19:31:24,1356078
2025-09-03 19:31:24,1356115
2025-09-03 19:31:24,1356243
2025-09-03 19:31:24,1356179
2025-09-03 19:31:24,1356254
2025-09-03 19:31:24,1356285
2025-09-03 19:31:24,1356325
2025-09-03 19:31:24,1356333
2025-09-03 19:31:24,1356357
2025-09-03 19:31:24,1356408
2025-09-03 19:31:24,1356429
2025-09-03 19:31:24,1356606
2025-09-03 19:31:24,1356584
2025-09-03 19:31:24,1356763
2025-09-03 19:31:24,1356792
2025-09-03 19:31:24,1356902
2025-09-03 19:31:24,1357034
2025-09-03 19:31:24,1357020
2025-09-03 19:31:24,1357175
2025-09-03 19:31:24,1357302
2025-09-03 19:31:24,1357369
2025-09-03 19:31:24,1357441
2025-09-03 19:31:24,1357606
2025-09-03 19:31:24,1357687
2025-09-03 19:31:24,1357876
2025-09-03 19:31:24,1357926
2025-09-03 19:31:24,1358043
2025-09-03 19:31:24,1358128
2025-09-03 19:31:24,1358159
2025-09-03 19:31:24,1358352
2025-09-03 19:31:24,1358443
2025-09-03 19:31:24,1358454
2025-09-03 19:31:24,1358563
2025-09-03 19:31:24,1358707
2025-09-03 19:31:24,1358688
2025-09-03 19:31:24,1358770
2025-09-03 19:31:24,1358887
2025-09-03 19:31:24,1358931
2025-09-03 19:31:24,1359028
2025-09-03 19:31:24,1359155
2025-09-03 19:31:24,1359222
2025-09-03 19:31:24,1359322
2025-09-03 19:31:24,1359335
2025-09-03 19:31:24,1359423
2025-09-03 19:31:24,1359461
2025-09-03 19:31:24,1359493
2025-09-03 19:31:24,1359615
2025-09-03 19:31:24,1359772
2025-09-03 19:31:24,1359681
2025-09-03 19:31:24,1359550
2025-09-03 19:31:25,1359170
2025-09-03 19:31:25,1358840
2025-09-03 19:31:25,1358459
2025-09-03 19:31:25,1357840
2025-09-03 19:31:25,1357369
2025-09-03 19:31:25,1356820
2025-09-03 19:31:25,1356497
2025-09-03 19:31:25,1356168
2025-09-03 19:31:25,1355818
2025-09-03 19:31:25,1355708
2025-09-03 19:31:25,1355656
2025-09-03 19:31:25,1355489
2025-09-03 19:31:25,1355457
2025-09-03 19:31:25,1355469
2025-09-03 19:31:25,1355398
2025-09-03 19:31:25,1355459
2025-09-03 19:31:25,1355494
2025-09-03 19:31:25,1355457
2025-09-03 19:31:25,1355407
2025-09-03 19:31:25,1355377
2025-09-03 19:31:25,1355450
2025-09-03 19:31:25,1355399
2025-09-03 19:31:25,1355524
2025-09-03 19:31:25,1355589
2025-09-03 19:31:25,1355659
2025-09-03 19:31:25,1355854
2025-09-03 19:31:25,1355874
2025-09-03 19:31:25,1355937
2025-09-03 19:31:25,1355979
2025-09-03 19:31:25,1356011
2025-09-03 19:31:25,1355957
2025-09-03 19:31:25,1356050
2025-09-03 19:31:25,1356085
2025-09-03 19:31:25,1356105
2025-09-03 19:31:25,1356125
2025-09-03 19:31:25,1356095
2025-09-03 19:31:25,1356093
2025-09-03 19:31:25,1356217
2025-09-03 19:31:25,1356185
2025-09-03 19:31:25,1356286
2025-09-03 19:31:25,1356334
2025-09-03 19:31:25,1356379
2025-09-03 19:31:25,1356431
2025-09-03 19:31:25,1356502
2025-09-03 19:31:25,1356588
2025-09-03 19:31:25,1356650
2025-09-03 19:31:25,1356732
2025-09-03 19:31:25,1356784
2025-09-03 19:31:25,1356902
2025-09-03 19:31:25,1357001
2025-09-03 19:31:25,1357094
2025-09-03 19:31:25,1357115
2025-09-03 19:31:25,1357236
2025-09-03 19:31:25,1357324
2025-09-03 19:31:25,1357473
2025-09-03 19:31:25,1357606
2025-09-03 19:31:25,1357695
2025-09-03 19:31:25,1357778
2025-09-03 19:31:25,1357916
2025-09-03 19:31:25,1357919
2025-09-03 19:31:25,1358110
2025-09-03 19:31:25,1358085
2025-09-03 19:31:25,1358261
2025-09-03 19:31:25,1358291
2025-09-03 19:31:25,1358437
2025-09-03 19:31:25,1358498
2025-09-03 19:31:25,1358527
2025-09-03 19:31:25,1358644
2025-09-03 19:31:25,1358691
2025-09-03 19:31:25,1358785
2025-09-03 19:31:25,1358965
2025-09-03 19:31:25,1358899
2025-09-03 19:31:25,1359109
2025-09-03 19:31:25,1359158
2025-09-03 19:31:25,1359293
2025-09-03 19:31:25,1359342
2025-09-03 19:31:25,1359376
2025-09-03 19:31:25,1359392
2025-09-03 19:31:25,1359267
2025-09-03 19:31:25,1358915
2025-09-03 19:31:25,1358668
2025-09-03 19:31:25,1358110
2025-09-03 19:31:25,1357637
2025-09-03 19:31:25,1357105
2025-09-03 19:31:25,1356592
2025-09-03 19:31:25,1356183
2025-09-03 19:31:25,1355980
2025-09-03 19:31:25,1355672
2025-09-03 19:31:25,1355405
2025-09-03 19:31:25,1355341
2025-09-03 19:31:25,1355241
2025-09-03 19:31:25,1355165
2025-09-03 19:31:25,1355172
2025-09-03 19:31:25,1355136
2025-09-03 19:31:25,1355091
2025-09-03 19:31:25,1355167
2025-09-03 19:31:25,1355230
2025-09-03 19:31:25,1355163
2025-09-03 19:31:25,1355200
2025-09-03 19:31:25,1355220
2025-09-03 19:31:26,1355300
2025-09-03 19:31:26,1355310
2025-09-03 19:31:26,1355408
2025-09-03 19:31:26,1355498
2025-09-03 19:31:26,1355611
2025-09-03 19:31:26,1355693
2025-09-03 19:31:26,1355673
2025-09-03 19:31:26,1355849
2025-09-03 19:31:26,1355860
2025-09-03 19:31:26,1355864
2025-09-03 19:31:26,1355880
2025-09-03 19:31:26,1355879
2025-09-03 19:31:26,1355854
2025-09-03 19:31:26,1355987
2025-09-03 19:31:26,1356001
2025-09-03 19:31:26,1355967
2025-09-03 19:31:26,1356026
2025-09-03 19:31:26,1355982
2025-09-03 19:31:26,1356105
2025-09-03 19:31:26,1356156
2025-09-03 19:31:26,1356209
2025-09-03 19:31:26,1356277
2025-09-03 19:31:26,1356349
2025-09-03 19:31:26,1356454
2025-09-03 19:31:26,1356467
2025-09-03 19:31:26,1356537
2025-09-03 19:31:26,1356748
2025-09-03 19:31:26,1356854
2025-09-03 19:31:26,1356858
2025-09-03 19:31:26,1357050
2025-09-03 19:31:26,1357086
2025-09-03 19:31:26,1357178
2025-09-03 19:31:26,1357391
2025-09-03 19:31:26,1357461
2025-09-03 19:31:26,1357591
2025-09-03 19:31:26,1357689
2025-09-03 19:31:26,1357770
2025-09-03 19:31:26,1357867
2025-09-03 19:31:26,1357949
2025-09-03 19:31:26,1358137
2025-09-03 19:31:26,1358172
2025-09-03 19:31:26,1358266
2025-09-03 19:31:26,1358347
2025-09-03 19:31:26,1358404
2025-09-03 19:31:26,1358469
2025-09-03 19:31:26,1358568
2025-09-03 19:31:26,1358632
2025-09-03 19:31:26,1358717
2025-09-03 19:31:26,1358818
2025-09-03 19:31:26,1358889
2025-09-03 19:31:26,1359016
2025-09-03 19:31:26,1359075
2025-09-03 19:31:26,1359134
2025-09-03 19:31:26,1359243
2025-09-03 19:31:26,1359290
2025-09-03 19:31:26,1359346
2025-09-03 19:31:26,1359334
2025-09-03 19:31:26,1359536
2025-09-03 19:31:26,1359583
2025-09-03 19:31:26,1359527
2025-09-03 19:31:26,1359302
2025-09-03 19:31:26,1358975
2025-09-03 19:31:26,1358495
2025-09-03 19:31:26,1358028
2025-09-03 19:31:26,1357458
2025-09-03 19:31:26,1356928
2025-09-03 19:31:26,1356328
2025-09-03 19:31:26,1355905
2025-09-03 19:31:26,1355714
2025-09-03 19:31:26,1355439
2025-09-03 19:31:26,1355264
2025-09-03 19:31:26,1355108
2025-09-03 19:31:26,1355016
2025-09-03 19:31:26,1354961
2025-09-03 19:31:26,1354947
2025-09-03 19:31:26,1354907
2025-09-03 19:31:26,1354994
2025-09-03 19:31:26,1354870
2025-09-03 19:31:26,1354965
2025-09-03 19:31:26,1354959
2025-09-03 19:31:26,1354929
2025-09-03 19:31:26,1354977
2025-09-03 19:31:26,1355116
2025-09-03 19:31:26,1355081
2025-09-03 19:31:26,1355096
2025-09-03 19:31:26,1355310
2025-09-03 19:31:26,1355442
2025-09-03 19:31:26,1355496
2025-09-03 19:31:26,1355579
2025-09-03 19:31:26,1355566
2025-09-03 19:31:26,1355682
2025-09-03 19:31:26,1355626
2025-09-03 19:31:26,1355729
2025-09-03 19:31:26,1355725
2025-09-03 19:31:26,1355758
2025-09-03 19:31:26,1355836
2025-09-03 19:31:26,1355874
2025-09-03 19:31:26,1355871
2025-09-03 19:31:26,1355869
2025-09-03 19:31:26,1355819
2025-09-03 19:31:27,1355992
2025-09-03 19:31:27,1356086
2025-09-03 19:31:27,1356132
2025-09-03 19:31:27,1356171
2025-09-03 19:31:27,1356206
2025-09-03 19:31:27,1356318
2025-09-03 19:31:27,1356443
2025-09-03 19:31:27,1356538
2025-09-03 19:31:27,1356644
2025-09-03 19:31:27,1356744
2025-09-03 19:31:27,1356870
2025-09-03 19:31:27,1356973
2025-09-03 19:31:27,1357085
2025-09-03 19:31:27,1357208
2025-09-03 19:31:27,1357223
2025-09-03 19:31:27,1357490
2025-09-03 19:31:27,1357523
2025-09-03 19:31:27,1357613
2025-09-03 19:31:27,1357771
2025-09-03 19:31:27,1357859
2025-09-03 19:31:27,1357939
2025-09-03 19:31:27,1358117
2025-09-03 19:31:27,1358209
2025-09-03 19:31:27,1358257
2025-09-03 19:31:27,1358282
2025-09-03 19:31:27,1358446
2025-09-03 19:31:27,1358552
2025-09-03 19:31:27,1358645
2025-09-03 19:31:27,1358773
2025-09-03 19:31:27,1358756
2025-09-03 19:31:27,1358880
2025-09-03 19:31:27,1358918
2025-09-03 19:31:27,1359030
2025-09-03 19:31:27,1359138
2025-09-03 19:31:27,1359172
2025-09-03 19:31:27,1359184
2025-09-03 19:31:27,1359302
2025-09-03 19:31:27,1359481
2025-09-03 19:31:27,1359548
2025-09-03 19:31:27,1359625
2025-09-03 19:31:27,1359646
2025-09-03 19:31:27,1359732
2025-09-03 19:31:27,1359816
2025-09-03 19:31:27,1359930
2025-09-03 19:31:27,1359987
2025-09-03 19:31:27,1359895
2025-09-03 19:31:27,1359811
2025-09-03 19:31:27,1359396
2025-09-03 19:31:27,1358957
2025-09-03 19:31:27,1358509
2025-09-03 19:31:27,1358003
2025-09-03 19:31:27,1357441
2025-09-03 19:31:27,1356895
2025-09-03 19:31:27,1356451
2025-09-03 19:31:27,1356198
2025-09-03 19:31:27,1355883
2025-09-03 19:31:27,1355726
2025-09-03 19:31:27,1355555
2025-09-03 19:31:27,1355429
2025-09-03 19:31:27,1355294
2025-09-03 19:31:27,1355326
2025-09-03 19:31:27,1355260
2025-09-03 19:31:27,1355278
2025-09-03 19:31:27,1355221
2025-09-03 19:31:27,1355235
2025-09-03 19:31:27,1355221
2025-09-03 19:31:27,1355328
2025-09-03 19:31:27,1355344
2025-09-03 19:31:27,1355335
2025-09-03 19:31:27,1355358
2025-09-03 19:31:27,1355543
2025-09-03 19:31:27,1355581
2025-09-03 19:31:27,1355700
2025-09-03 19:31:27,1355760
2025-09-03 19:31:27,1355717
2025-09-03 19:31:27,1355794
2025-09-03 19:31:27,1355991
2025-09-03 19:31:27,1356020
2025-09-03 19:31:27,1355983
2025-09-03 19:31:27,1355962
2025-09-03 19:31:27,1356034
2025-09-03 19:31:27,1356104
2025-09-03 19:31:27,1356089
2025-09-03 19:31:27,1356105
2025-09-03 19:31:27,1356153
2025-09-03 19:31:27,1356218
2025-09-03 19:31:27,1356169
2025-09-03 19:31:27,1356299
2025-09-03 19:31:27,1356313
2025-09-03 19:31:27,1356407
2025-09-03 19:31:27,1356433
2025-09-03 19:31:27,1356546
2025-09-03 19:31:27,1356611
2025-09-03 19:31:27,1356735
2025-09-03 19:31:27,1356821
2025-09-03 19:31:27,1356895
2025-09-03 19:31:27,1357094
2025-09-03 19:31:27,1357161
2025-09-03 19:31:27,1357242
2025-09-03 19:31:27,1357444
2025-09-03 19:31:28,1357568
2025-09-03 19:31:28,1357643
2025-09-03 19:31:28,1357727
2025-09-03 19:31:28,1357833
2025-09-03 19:31:28,1357949
2025-09-03 19:31:28,1358076
2025-09-03 19:31:28,1358132
2025-09-03 19:31:28,1358255
2025-09-03 19:31:28,1358362
2025-09-03 19:31:28,1358477
2025-09-03 19:31:28,1358601
2025-09-03 19:31:28,1358645
2025-09-03 19:31:28,1358714
2025-09-03 19:31:28,1358760
2025-09-03 19:31:28,1358884
2025-09-03 19:31:28,1358988
2025-09-03 19:31:28,1359091
2025-09-03 19:31:28,1359181
2025-09-03 19:31:28,1359207
2025-09-03 19:31:28,1359293
2025-09-03 19:31:28,1359400
2025-09-03 19:31:28,1359470
2025-09-03 19:31:28,1359580
2025-09-03 19:31:28,1359571
2025-09-03 19:31:28,1359730
2025-09-03 19:31:28,1359749
2025-09-03 19:31:28,1359841
2025-09-03 19:31:28,1360020
2025-09-03 19:31:28,1360065
2025-09-03 19:31:28,1360168
2025-09-03 19:31:28,1360228
2025-09-03 19:31:28,1360267
2025-09-03 19:31:28,1360111
2025-09-03 19:31:28,1359955
2025-09-03 19:31:28,1359444
2025-09-03 19:31:28,1359098
2025-09-03 19:31:28,1358585
2025-09-03 19:31:28,1358113
2025-09-03 19:31:28,1357606
2025-09-03 19:31:28,1357184
2025-09-03 19:31:28,1356756
2025-09-03 19:31:28,1356490
2025-09-03 19:31:28,1356259
2025-09-03 19:31:28,1356039
2025-09-03 19:31:28,1355932
2025-09-03 19:31:28,1355860
2025-09-03 19:31:28,1355786
2025-09-03 19:31:28,1355709
2025-09-03 19:31:28,1355701
2025-09-03 19:31:28,1355758
2025-09-03 19:31:28,1355715
2025-09-03 19:31:28,1355708
2025-09-03 19:31:28,1355727
2025-09-03 19:31:28,1355831
2025-09-03 19:31:28,1355848
2025-09-03 19:31:28,1355778
2025-09-03 19:31:28,1355877
2025-09-03 19:31:28,1356029
2025-09-03 19:31:28,1356104
2025-09-03 19:31:28,1356198
2025-09-03 19:31:28,1356187
2025-09-03 19:31:28,1356350
2025-09-03 19:31:28,1356303
2025-09-03 19:31:28,1356525
2025-09-03 19:31:28,1356500
2025-09-03 19:31:28,1356486
2025-09-03 19:31:28,1356555
2025-09-03 19:31:28,1356505
2025-09-03 19:31:28,1356528
2025-09-03 19:31:28,1356575
2025-09-03 19:31:28,1356629
2025-09-03 19:31:28,1356601
2025-09-03 19:31:28,1356619
2025-09-03 19:31:28,1356685
2025-09-03 19:31:28,1356801
2025-09-03 19:31:28,1356812
2025-09-03 19:31:28,1356872
2025-09-03 19:31:28,1356986
2025-09-03 19:31:28,1357082
2025-09-03 19:31:28,1357107
2025-09-03 19:31:28,1357257
2025-09-03 19:31:28,1357357
2025-09-03 19:31:28,1357537
2025-09-03 19:31:28,1357613
2025-09-03 19:31:28,1357764
2025-09-03 19:31:28,1357909
2025-09-03 19:31:28,1357940
2025-09-03 19:31:28,1358049
2025-09-03 19:31:28,1358241
2025-09-03 19:31:28,1358238
2025-09-03 19:31:28,1358438
2025-09-03 19:31:28,1358489
2025-09-03 19:31:28,1358614
2025-09-03 19:31:28,1358681
2025-09-03 19:31:28,1358840
2025-09-03 19:31:28,1358911
2025-09-03 19:31:28,1358952
2025-09-03 19:31:28,1358956
2025-09-03 19:31:28,1359115
2025-09-03 19:31:28,1359154
2025-09-03 19:31:29,1359286
2025-09-03 19:31:29,1359467
2025-09-03 19:31:29,1359451
2025-09-03 19:31:29,1359508
2025-09-03 19:31:29,1359607
2025-09-03 19:31:29,1359610
2025-09-03 19:31:29,1359800
2025-09-03 19:31:29,1359803
2025-09-03 19:31:29,1359961
2025-09-03 19:31:29,1360035
2025-09-03 19:31:29,1360067
2025-09-03 19:31:29,1360189
2025-09-03 19:31:29,1360181
2025-09-03 19:31:29,1360239
2025-09-03 19:31:29,1360240
2025-09-03 19:31:29,1359987
2025-09-03 19:31:29,1359498
2025-09-03 19:31:29,1359086
2025-09-03 19:31:29,1358582
2025-09-03 19:31:29,1358159
2025-09-03 19:31:29,1357720
2025-09-03 19:31:29,1357236
2025-09-03 19:31:29,1356786
2025-09-03 19:31:29,1356579
2025-09-03 19:31:29,1356358
2025-09-03 19:31:29,1356297
2025-09-03 19:31:29,1356134
2025-09-03 19:31:27,1356168
2025-09-03 19:31:29,1355996
2025-09-03 19:31:29,1356037
2025-09-03 19:31:29,1356093
2025-09-03 19:31:29,1356118
2025-09-03 19:31:29,1356062
2025-09-03 19:31:29,1356096
2025-09-03 19:31:29,1356127
2025-09-03 19:31:29,1356202
2025-09-03 19:31:29,1356185
2025-09-03 19:31:29,1356270
2025-09-03 19:31:29,1356335
2025-09-03 19:31:29,1356481
2025-09-03 19:31:29,1356557
2025-09-03 19:31:29,1356655
2025-09-03 19:31:29,1356725
2025-09-03 19:31:29,1356818
2025-09-03 19:31:29,1356781
2025-09-03 19:31:29,1356856
2025-09-03 19:31:29,1356846
2025-09-03 19:31:29,1356895
2025-09-03 19:31:29,1356891
2025-09-03 19:31:29,1356888
2025-09-03 19:31:29,1356966
2025-09-03 19:31:29,1356912
2025-09-03 19:31:29,1357042
2025-09-03 19:31:29,1357056
2025-09-03 19:31:29,1357101
2025-09-03 19:31:29,1357187
2025-09-03 19:31:29,1357145
2025-09-03 19:31:29,1357266
2025-09-03 19:31:29,1357378
2025-09-03 19:31:29,1357504
2025-09-03 19:31:29,1357578
2025-09-03 19:31:29,1357758
2025-09-03 19:31:29,1357839
2025-09-03 19:31:29,1357884
2025-09-03 19:31:29,1358000
2025-09-03 19:31:29,1358160
2025-09-03 19:31:29,1358280
2025-09-03 19:31:29,1358370
2025-09-03 19:31:29,1358429
2025-09-03 19:31:29,1358553
2025-09-03 19:31:29,1358726
2025-09-03 19:31:29,1358778
2025-09-03 19:31:29,1358875
2025-09-03 19:31:29,1358980
2025-09-03 19:31:29,1359070
2025-09-03 19:31:29,1359216
2025-09-03 19:31:29,1359301
2025-09-03 19:31:29,1359392
2025-09-03 19:31:29,1359433
2025-09-03 19:31:29,1359477
2025-09-03 19:31:29,1359595
2025-09-03 19:31:29,1359633
2025-09-03 19:31:29,1359750
2025-09-03 19:31:29,1359823
2025-09-03 19:31:29,1359901
2025-09-03 19:31:29,1359972
2025-09-03 19:31:29,1360057
2025-09-03 19:31:29,1360068
2025-09-03 19:31:29,1360274
2025-09-03 19:31:29,1360328
2025-09-03 19:31:29,1360380
2025-09-03 19:31:29,1360462
2025-09-03 19:31:29,1360547
2025-09-03 19:31:29,1360457
2025-09-03 19:31:29,1360426
2025-09-03 19:31:29,1360103
2025-09-03 19:31:29,1359609
2025-09-03 19:31:29,1359245
2025-09-03 19:31:29,1358779
2025-09-03 19:31:29,1358217
2025-09-03 19:31:30,1357692
2025-09-03 19:31:30,1357228
2025-09-03 19:31:30,1356913
2025-09-03 19:31:30,1356737
2025-09-03 19:31:30,1356481
2025-09-03 19:31:30,1356337
2025-09-03 19:31:30,1356192
2025-09-03 19:31:30,1356103
2025-09-03 19:31:30,1356112
2025-09-03 19:31:30,1356184
2025-09-03 19:31:30,1356024
2025-09-03 19:31:30,1356092
2025-09-03 19:31:30,1356106
2025-09-03 19:31:30,1356160
2025-09-03 19:31:30,1356059
2025-09-03 19:31:30,1356223
2025-09-03 19:31:30,1356182
2025-09-03 19:31:30,1356305
2025-09-03 19:31:30,1356349
2025-09-03 19:31:30,1356465
2025-09-03 19:31:30,1356501
2025-09-03 19:31:30,1356624
2025-09-03 19:31:30,1356717
2025-09-03 19:31:30,1356701
2025-09-03 19:31:30,1356754
2025-09-03 19:31:30,1356791
2025-09-03 19:31:30,1356868
2025-09-03 19:31:30,1356848
2025-09-03 19:31:30,1356792
2025-09-03 19:31:30,1356939
2025-09-03 19:31:30,1356857
2025-09-03 19:31:30,1356927
2025-09-03 19:31:30,1356993
2025-09-03 19:31:30,1356958
2025-09-03 19:31:30,1357027
2025-09-03 19:31:30,1356993
2025-09-03 19:31:30,1357072
2025-09-03 19:31:30,1357207
2025-09-03 19:31:30,1357282
2025-09-03 19:31:30,1357351
2025-09-03 19:31:30,1357470
2025-09-03 19:31:30,1357521
2025-09-03 19:31:30,1357648
2025-09-03 19:31:30,1357783
2025-09-03 19:31:30,1357886
2025-09-03 19:31:30,1358027
2025-09-03 19:31:30,1358061
2025-09-03 19:31:30,1358178
2025-09-03 19:31:30,1358227
2025-09-03 19:31:30,1358456
2025-09-03 19:31:30,1358576
2025-09-03 19:31:30,1358641
2025-09-03 19:31:30,1358741
2025-09-03 19:31:30,1358787
2025-09-03 19:31:30,1358981
2025-09-03 19:31:30,1359046
2025-09-03 19:31:30,1359167
2025-09-03 19:31:30,1359235
2025-09-03 19:31:30,1359292
2025-09-03 19:31:30,1359434
2025-09-03 19:31:30,1359438
2025-09-03 19:31:30,1359545
2025-09-03 19:31:30,1359642
2025-09-03 19:31:30,1359681
2025-09-03 19:31:30,1359714
2025-09-03 19:31:30,1359805
2025-09-03 19:31:30,1359994
2025-09-03 19:31:30,1359989
2025-09-03 19:31:30,1359992
2025-09-03 19:31:30,1360155
2025-09-03 19:31:30,1360291
2025-09-03 19:31:30,1360316
2025-09-03 19:31:30,1360333
2025-09-03 19:31:30,1360414
2025-09-03 19:31:30,1360479
2025-09-03 19:31:30,1360412
2025-09-03 19:31:30,1360414
2025-09-03 19:31:30,1360053
2025-09-03 19:31:30,1359676
2025-09-03 19:31:30,1359118
2025-09-03 19:31:30,1358659
2025-09-03 19:31:30,1358149
2025-09-03 19:31:30,1357567
2025-09-03 19:31:30,1357142
2025-09-03 19:31:30,1356756
2025-09-03 19:31:30,1356472
2025-09-03 19:31:30,1356278
2025-09-03 19:31:30,1356092
2025-09-03 19:31:30,1356001
2025-09-03 19:31:30,1355912
2025-09-03 19:31:30,1355787
2025-09-03 19:31:30,1355708
2025-09-03 19:31:30,1355757
2025-09-03 19:31:30,1355822
2025-09-03 19:31:30,1355735
2025-09-03 19:31:30,1355732
2025-09-03 19:31:30,1355699
2025-09-03 19:31:30,1355762
2025-09-03 19:31:30,1355799
2025-09-03 19:31:30,1355854
2025-09-03 19:31:31,1355844
2025-09-03 19:31:31,1356060
2025-09-03 19:31:31,1356037
2025-09-03 19:31:31,1356164
2025-09-03 19:31:31,1356278
2025-09-03 19:31:31,1356257
2025-09-03 19:31:31,1356293
2025-09-03 19:31:31,1356275
2025-09-03 19:31:31,1356379
2025-09-03 19:31:31,1356316
2025-09-03 19:31:31,1356447
2025-09-03 19:31:31,1356429
2025-09-03 19:31:31,1356395
2025-09-03 19:31:31,1356456
2025-09-03 19:31:31,1356469
2025-09-03 19:31:31,1356549
2025-09-03 19:31:31,1356500
2025-09-03 19:31:31,1356570
2025-09-03 19:31:31,1356666
2025-09-03 19:31:31,1356677
2025-09-03 19:31:31,1356725
2025-09-03 19:31:31,1356901
2025-09-03 19:31:31,1356948
2025-09-03 19:31:31,1357016
2025-09-03 19:31:31,1357076
2025-09-03 19:31:31,1357199
2025-09-03 19:31:31,1357312
2025-09-03 19:31:31,1357435
2025-09-03 19:31:31,1357599
2025-09-03 19:31:31,1357665
2025-09-03 19:31:31,1357795
2025-09-03 19:31:31,1357925
2025-09-03 19:31:31,1357943
2025-09-03 19:31:31,1358143
2025-09-03 19:31:31,1358179
2025-09-03 19:31:31,1358384
2025-09-03 19:31:31,1358405
2025-09-03 19:31:31,1358521
2025-09-03 19:31:31,1358670
2025-09-03 19:31:31,1358804
2025-09-03 19:31:31,1358772
2025-09-03 19:31:31,1358873
2025-09-03 19:31:31,1358991
2025-09-03 19:31:31,1359091
2025-09-03 19:31:31,1359129
2025-09-03 19:31:31,1359302
2025-09-03 19:31:31,1359223
2025-09-03 19:31:31,1359367
2025-09-03 19:31:31,1359535
2025-09-03 19:31:31,1359555
2025-09-03 19:31:31,1359679
2025-09-03 19:31:31,1359734
2025-09-03 19:31:31,1359834
2025-09-03 19:31:31,1359861
2025-09-03 19:31:31,1359959
2025-09-03 19:31:31,1360010
2025-09-03 19:31:31,1360060
2025-09-03 19:31:31,1359961
2025-09-03 19:31:31,1359769
2025-09-03 19:31:31,1359362
2025-09-03 19:31:31,1358875
2025-09-03 19:31:31,1358408
2025-09-03 19:31:31,1357894
2025-09-03 19:31:31,1357253
2025-09-03 19:31:31,1356811
2025-09-03 19:31:31,1356401
2025-09-03 19:31:31,1356011
2025-09-03 19:31:31,1355878
2025-09-03 19:31:31,1355779
2025-09-03 19:31:31,1355518
2025-09-03 19:31:31,1355466
2025-09-03 19:31:31,1355349
2025-09-03 19:31:31,1355404
2025-09-03 19:31:31,1355256
2025-09-03 19:31:31,1355248
2025-09-03 19:31:31,1355360
2025-09-03 19:31:31,1355270
2025-09-03 19:31:31,1355294
2025-09-03 19:31:31,1355373
2025-09-03 19:31:31,1355359
2025-09-03 19:31:31,1355328
2025-09-03 19:31:31,1355498
2025-09-03 19:31:31,1355451
2025-09-03 19:31:31,1355697
2025-09-03 19:31:31,1355775
2025-09-03 19:31:31,1355872
2025-09-03 19:31:31,1355802
2025-09-03 19:31:31,1355944
2025-09-03 19:31:31,1355992
2025-09-03 19:31:31,1356012
2025-09-03 19:31:31,1356019
2025-09-03 19:31:31,1356052
2025-09-03 19:31:31,1356051
2025-09-03 19:31:31,1356155
2025-09-03 19:31:31,1356111
2025-09-03 19:31:31,1356137
2025-09-03 19:31:31,1356124
2025-09-03 19:31:31,1356238
2025-09-03 19:31:31,1356300
2025-09-03 19:31:31,1356308
2025-09-03 19:31:32,1356447
2025-09-03 19:31:32,1356393
2025-09-03 19:31:32,1356502
2025-09-03 19:31:32,1356580
2025-09-03 19:31:32,1356753
2025-09-03 19:31:32,1356778
2025-09-03 19:31:32,1356916
2025-09-03 19:31:32,1357032
2025-09-03 19:31:32,1357117
2025-09-03 19:31:32,1357186
2025-09-03 19:31:32,1357326
2025-09-03 19:31:32,1357467
2025-09-03 19:31:32,1357539
2025-09-03 19:31:32,1357637
2025-09-03 19:31:32,1357778
2025-09-03 19:31:32,1357869
2025-09-03 19:31:32,1357943
2025-09-03 19:31:32,1358106
2025-09-03 19:31:32,1358171
2025-09-03 19:31:32,1358281
2025-09-03 19:31:32,1358334
2025-09-03 19:31:32,1358458
2025-09-03 19:31:32,1358587
2025-09-03 19:31:32,1358699
2025-09-03 19:31:32,1358705
2025-09-03 19:31:32,1358860
2025-09-03 19:31:32,1358920
2025-09-03 19:31:32,1358977
2025-09-03 19:31:32,1359077
2025-09-03 19:31:32,1359142
2025-09-03 19:31:32,1359232
2025-09-03 19:31:32,1359367
2025-09-03 19:31:32,1359434
2025-09-03 19:31:32,1359511
2025-09-03 19:31:32,1359583
2025-09-03 19:31:32,1359601
2025-09-03 19:31:32,1359813
2025-09-03 19:31:32,1359818
2025-09-03 19:31:32,1359906
2025-09-03 19:31:32,1359868
2025-09-03 19:31:32,1359989
2025-09-03 19:31:32,1359798
2025-09-03 19:31:32,1359361
2025-09-03 19:31:32,1358979
2025-09-03 19:31:32,1358379
2025-09-03 19:31:32,1357852
2025-09-03 19:31:32,1357286
2025-09-03 19:31:32,1356766
2025-09-03 19:31:32,1356275
2025-09-03 19:31:32,1355993
2025-09-03 19:31:32,1355786
2025-09-03 19:31:32,1355514
2025-09-03 19:31:32,1355414
2025-09-03 19:31:32,1355351
2025-09-03 19:31:32,1355219
2025-09-03 19:31:32,1355172
2025-09-03 19:31:32,1355223
2025-09-03 19:31:32,1355254
2025-09-03 19:31:32,1355164
2025-09-03 19:31:32,1355235
2025-09-03 19:31:32,1355306
2025-09-03 19:31:32,1355220
2025-09-03 19:31:32,1355233
2025-09-03 19:31:32,1355279
2025-09-03 19:31:32,1355246
2025-09-03 19:31:32,1355368
2025-09-03 19:31:32,1355512
2025-09-03 19:31:32,1355605
2025-09-03 19:31:32,1355734
2025-09-03 19:31:32,1355770
2025-09-03 19:31:32,1355790
2025-09-03 19:31:32,1355832
2025-09-03 19:31:32,1355878
2025-09-03 19:31:32,1355945
2025-09-03 19:31:32,1355861
2025-09-03 19:31:32,1355966
2025-09-03 19:31:32,1355975
2025-09-03 19:31:32,1355890
2025-09-03 19:31:32,1355925
2025-09-03 19:31:32,1356000
2025-09-03 19:31:32,1356062
2025-09-03 19:31:32,1355978
2025-09-03 19:31:32,1356150
2025-09-03 19:31:32,1356195
2025-09-03 19:31:32,1356241
2025-09-03 19:31:32,1356279
2025-09-03 19:31:32,1356485
2025-09-03 19:31:32,1356573
2025-09-03 19:31:32,1356529
2025-09-03 19:31:32,1356667
2025-09-03 19:31:32,1356813
2025-09-03 19:31:32,1356942
2025-09-03 19:31:32,1357106
2025-09-03 19:31:32,1357204
2025-09-03 19:31:32,1357316
2025-09-03 19:31:32,1357406
2025-09-03 19:31:32,1357542
2025-09-03 19:31:32,1357653
2025-09-03 19:31:32,1357794
2025-09-03 19:31:32,1357819
2025-09-03 19:31:33,1357936
2025-09-03 19:31:33,1358038
2025-09-03 19:31:33,1358186
2025-09-03 19:31:33,1358263
2025-09-03 19:31:33,1358403
2025-09-03 19:31:33,1358489
2025-09-03 19:31:33,1358548
2025-09-03 19:31:33,1358609
2025-09-03 19:31:33,1358701
2025-09-03 19:31:33,1358805
2025-09-03 19:31:33,1358921
2025-09-03 19:31:33,1359013
2025-09-03 19:31:33,1359105
2025-09-03 19:31:33,1359167
2025-09-03 19:31:33,1359186
2025-09-03 19:31:33,1359351
2025-09-03 19:31:33,1359490
2025-09-03 19:31:33,1359507
2025-09-03 19:31:33,1359542
2025-09-03 19:31:33,1359644
2025-09-03 19:31:33,1359666
2025-09-03 19:31:33,1359504
2025-09-03 19:31:33,1359172
2025-09-03 19:31:33,1358756
2025-09-03 19:31:33,1358241
2025-09-03 19:31:33,1357632
2025-09-03 19:31:33,1357118
2025-09-03 19:31:33,1356599
2025-09-03 19:31:33,1356146
2025-09-03 19:31:33,1355874
2025-09-03 19:31:33,1355643
2025-09-03 19:31:33,1355473
2025-09-03 19:31:33,1355298
2025-09-03 19:31:33,1355313
2025-09-03 19:31:33,1355187
2025-09-03 19:31:33,1355142
2025-09-03 19:31:33,1355170
2025-09-03 19:31:33,1355188
2025-09-03 19:31:33,1355212
2025-09-03 19:31:33,1355197
2025-09-03 19:31:33,1355242
2025-09-03 19:31:33,1355214
2025-09-03 19:31:33,1355325
2025-09-03 19:31:33,1355397
2025-09-03 19:31:33,1355430
2025-09-03 19:31:33,1355578
2025-09-03 19:31:33,1355752
2025-09-03 19:31:33,1355718
2025-09-03 19:31:33,1355816
2025-09-03 19:31:33,1355916
2025-09-03 19:31:33,1355942
2025-09-03 19:31:33,1356030
2025-09-03 19:31:33,1355949
2025-09-03 19:31:33,1356086
2025-09-03 19:31:33,1356074
2025-09-03 19:31:33,1355988
2025-09-03 19:31:33,1356025
2025-09-03 19:31:33,1356049
2025-09-03 19:31:33,1356074
2025-09-03 19:31:33,1356130
2025-09-03 19:31:33,1356140
2025-09-03 19:31:33,1356243
2025-09-03 19:31:33,1356222
2025-09-03 19:31:33,1356332
2025-09-03 19:31:33,1356386
2025-09-03 19:31:33,1356430
2025-09-03 19:31:33,1356564
2025-09-03 19:31:33,1356639
2025-09-03 19:31:33,1356728
2025-09-03 19:31:33,1356865
2025-09-03 19:31:33,1356995
2025-09-03 19:31:33,1357090
2025-09-03 19:31:33,1357236
2025-09-03 19:31:33,1357291
2025-09-03 19:31:33,1357412
2025-09-03 19:31:33,1357490
2025-09-03 19:31:33,1357633
2025-09-03 19:31:33,1357727
2025-09-03 19:31:33,1357859
2025-09-03 19:31:33,1357945
2025-09-03 19:31:33,1357937
2025-09-03 19:31:33,1358135
2025-09-03 19:31:33,1358231
2025-09-03 19:31:33,1358333
2025-09-03 19:31:33,1358363
2025-09-03 19:31:33,1358537
2025-09-03 19:31:33,1358632
2025-09-03 19:31:33,1358643
2025-09-03 19:31:33,1358747
2025-09-03 19:31:33,1358881
2025-09-03 19:31:33,1358930
2025-09-03 19:31:33,1359029
2025-09-03 19:31:33,1359100
2025-09-03 19:31:33,1359181
2025-09-03 19:31:33,1359286
2025-09-03 19:31:33,1359330
2025-09-03 19:31:33,1359471
2025-09-03 19:31:33,1359507
2025-09-03 19:31:33,1359572
2025-09-03 19:31:33,1359636
2025-09-03 19:31:33,1359682
2025-09-03 19:31:34,1359696
2025-09-03 19:31:34,1359481
2025-09-03 19:31:34,1359123
2025-09-03 19:31:34,1358655
2025-09-03 19:31:34,1358180
2025-09-03 19:31:34,1357590
2025-09-03 19:31:34,1356985
2025-09-03 19:31:34,1356450
2025-09-03 19:31:34,1356018
2025-09-03 19:31:34,1355709
2025-09-03 19:31:34,1355495
2025-09-03 19:31:34,1355221
2025-09-03 19:31:34,1355104
2025-09-03 19:31:34,1355072
2025-09-03 19:31:34,1355005
2025-09-03 19:31:34,1355021
2025-09-03 19:31:34,1354994
2025-09-03 19:31:34,1355082
2025-09-03 19:31:34,1355033
2025-09-03 19:31:34,1355092
2025-09-03 19:31:34,1355061
2025-09-03 19:31:34,1355048
2025-09-03 19:31:34,1355103
2025-09-03 19:31:34,1355162
2025-09-03 19:31:34,1355171
2025-09-03 19:31:34,1355302
2025-09-03 19:31:34,1355338
2025-09-03 19:31:34,1355534
2025-09-03 19:31:34,1355508
2025-09-03 19:31:34,1355654
2025-09-03 19:31:34,1355616
2025-09-03 19:31:34,1355760
2025-09-03 19:31:34,1355795
2025-09-03 19:31:34,1355814
2025-09-03 19:31:34,1355794
2025-09-03 19:31:34,1355877
2025-09-03 19:31:34,1355838
2025-09-03 19:31:34,1355811
2025-09-03 19:31:34,1355901
2025-09-03 19:31:34,1355913
2025-09-03 19:31:34,1355969
2025-09-03 19:31:34,1355942
2025-09-03 19:31:34,1356001
2025-09-03 19:31:34,1356084
2025-09-03 19:31:34,1356141
2025-09-03 19:31:34,1356216
2025-09-03 19:31:34,1356286
2025-09-03 19:31:34,1356443
2025-09-03 19:31:34,1356497
2025-09-03 19:31:34,1356637
2025-09-03 19:31:34,1356755
2025-09-03 19:31:34,1356889
2025-09-03 19:31:34,1356927
2025-09-03 19:31:34,1357147
2025-09-03 19:31:34,1357120
2025-09-03 19:31:34,1357304
2025-09-03 19:31:34,1357413
2025-09-03 19:31:34,1357491
2025-09-03 19:31:34,1357574
2025-09-03 19:31:34,1357695
2025-09-03 19:31:34,1357862
2025-09-03 19:31:34,1357904
2025-09-03 19:31:34,1358057
2025-09-03 19:31:34,1358107
2025-09-03 19:31:34,1358191
2025-09-03 19:31:34,1358358
2025-09-03 19:31:34,1358420
2025-09-03 19:31:34,1358445
2025-09-03 19:31:34,1358516
2025-09-03 19:31:34,1358624
2025-09-03 19:31:34,1358740
2025-09-03 19:31:34,1358897
2025-09-03 19:31:34,1358940
2025-09-03 19:31:34,1358979
2025-09-03 19:31:34,1359049
2025-09-03 19:31:34,1359224
2025-09-03 19:31:34,1359285
2025-09-03 19:31:34,1359395
2025-09-03 19:31:34,1359440
2025-09-03 19:31:34,1359464
2025-09-03 19:31:34,1359509
2025-09-03 19:31:34,1359457
2025-09-03 19:31:34,1359229
2025-09-03 19:31:34,1358955
2025-09-03 19:31:34,1358470
2025-09-03 19:31:34,1357929
2025-09-03 19:31:34,1357311
2025-09-03 19:31:34,1356699
2025-09-03 19:31:34,1356269
2025-09-03 19:31:34,1355878
2025-09-03 19:31:34,1355537
2025-09-03 19:31:34,1355293
2025-09-03 19:31:34,1355114
2025-09-03 19:31:34,1354875
2025-09-03 19:31:34,1354851
2025-09-03 19:31:34,1354810
2025-09-03 19:31:34,1354732
2025-09-03 19:31:34,1354761
2025-09-03 19:31:34,1354764
2025-09-03 19:31:35,1354798
2025-09-03 19:31:35,1354884
2025-09-03 19:31:35,1354791
2025-09-03 19:31:35,1354807
2025-09-03 19:31:35,1354865
2025-09-03 19:31:35,1354852
2025-09-03 19:31:35,1354950
2025-09-03 19:31:35,1354993
2025-09-03 19:31:35,1355127
2025-09-03 19:31:35,1355155
2025-09-03 19:31:35,1355425
2025-09-03 19:31:35,1355379
2025-09-03 19:31:35,1355460
2025-09-03 19:31:35,1355513
2025-09-03 19:31:35,1355491
2025-09-03 19:31:35,1355538
2025-09-03 19:31:35,1355510
2025-09-03 19:31:35,1355591
2025-09-03 19:31:35,1355548
2025-09-03 19:31:35,1355621
2025-09-03 19:31:35,1355643
2025-09-03 19:31:35,1355698
2025-09-03 19:31:35,1355766
2025-09-03 19:31:35,1355745
2025-09-03 19:31:35,1355770
2025-09-03 19:31:35,1355958
2025-09-03 19:31:35,1355868
2025-09-03 19:31:35,1356092
2025-09-03 19:31:35,1356177
2025-09-03 19:31:35,1356195
2025-09-03 19:31:35,1356329
2025-09-03 19:31:35,1356525
2025-09-03 19:31:35,1356609
2025-09-03 19:31:35,1356682
2025-09-03 19:31:35,1356844
2025-09-03 19:31:35,1356946
2025-09-03 19:31:35,1357063
2025-09-03 19:31:35,1357167
2025-09-03 19:31:35,1357324
2025-09-03 19:31:35,1357342
2025-09-03 19:31:35,1357436
2025-09-03 19:31:35,1357567
2025-09-03 19:31:35,1357792
2025-09-03 19:31:35,1357836
2025-09-03 19:31:35,1357956
2025-09-03 19:31:35,1358107
2025-09-03 19:31:35,1358190
2025-09-03 19:31:35,1358273
2025-09-03 19:31:35,1358381
2025-09-03 19:31:35,1358405
2025-09-03 19:31:35,1358585
2025-09-03 19:31:35,1358550
2025-09-03 19:31:35,1358652
2025-09-03 19:31:35,1358757
2025-09-03 19:31:35,1358877
2025-09-03 19:31:35,1358921
2025-09-03 19:31:35,1359034
2025-09-03 19:31:35,1359067
2025-09-03 19:31:35,1359134
2025-09-03 19:31:35,1359253
2025-09-03 19:31:35,1359293
2025-09-03 19:31:35,1359542
2025-09-03 19:31:35,1359537
2025-09-03 19:31:35,1359658
2025-09-03 19:31:35,1359700
2025-09-03 19:31:35,1359750
2025-09-03 19:31:35,1359640
2025-09-03 19:31:35,1359266
2025-09-03 19:31:35,1358936
2025-09-03 19:31:35,1358476
2025-09-03 19:31:35,1357813
2025-09-03 19:31:35,1357223
2025-09-03 19:31:35,1356706
2025-09-03 19:31:35,1356196
2025-09-03 19:31:35,1355828
2025-09-03 19:31:35,1355584
2025-09-03 19:31:35,1355319
2025-09-03 19:31:35,1355126
2025-09-03 19:31:35,1354982
2025-09-03 19:31:35,1354948
2025-09-03 19:31:35,1354859
2025-09-03 19:31:35,1354822
2025-09-03 19:31:35,1354798
2025-09-03 19:31:35,1354876
2025-09-03 19:31:35,1354787
2025-09-03 19:31:35,1354856
2025-09-03 19:31:35,1354906
2025-09-03 19:31:35,1354866
2025-09-03 19:31:35,1354917
2025-09-03 19:31:35,1354873
2025-09-03 19:31:35,1355127
2025-09-03 19:31:35,1355193
2025-09-03 19:31:35,1355181
2025-09-03 19:31:35,1355311
2025-09-03 19:31:35,1355409
2025-09-03 19:31:35,1355495
2025-09-03 19:31:35,1355559
2025-09-03 19:31:35,1355580
2025-09-03 19:31:35,1355566
2025-09-03 19:31:35,1355582
2025-09-03 19:31:36,1355687
2025-09-03 19:31:36,1355639
2025-09-03 19:31:36,1355700
2025-09-03 19:31:36,1355736
2025-09-03 19:31:36,1355710
2025-09-03 19:31:36,1355819
2025-09-03 19:31:36,1355868
