timestamp,value
2025-09-11 14:20:54,1499193
2025-09-11 14:20:54,1497184
2025-09-11 14:20:54,1495239
2025-09-11 14:20:54,1493353
2025-09-11 14:20:54,1491958
2025-09-11 14:20:54,1491657
2025-09-11 14:20:54,1491983
2025-09-11 14:20:54,1491915
2025-09-11 14:20:54,1491474
2025-09-11 14:20:54,1490548
2025-09-11 14:20:54,1490553
2025-09-11 14:20:54,1491231
2025-09-11 14:20:54,1492005
2025-09-11 14:20:54,1492584
2025-09-11 14:20:54,1493037
2025-09-11 14:20:54,1493159
2025-09-11 14:20:54,1492680
2025-09-11 14:20:54,1491176
2025-09-11 14:20:54,1489696
2025-09-11 14:20:54,1488648
2025-09-11 14:20:54,1487815
2025-09-11 14:20:54,1487155
2025-09-11 14:20:54,1486697
2025-09-11 14:20:54,1486073
2025-09-11 14:20:54,1485203
2025-09-11 14:20:54,1484335
2025-09-11 14:20:54,1483565
2025-09-11 14:20:54,1482719
2025-09-11 14:20:54,1481710
2025-09-11 14:20:54,1480958
2025-09-11 14:20:54,1480486
2025-09-11 14:20:54,1480345
2025-09-11 14:20:54,1480674
2025-09-11 14:20:54,1481306
2025-09-11 14:20:54,1481877
2025-09-11 14:20:54,1482340
2025-09-11 14:20:54,1482437
2025-09-11 14:20:54,1482028
2025-09-11 14:20:54,1481433
2025-09-11 14:20:54,1480742
2025-09-11 14:20:54,1479856
2025-09-11 14:20:54,1478627
2025-09-11 14:20:54,1477299
2025-09-11 14:20:54,1476022
2025-09-11 14:20:54,1475096
2025-09-11 14:20:54,1474680
2025-09-11 14:20:54,1474506
2025-09-11 14:20:54,1475021
2025-09-11 14:20:54,1475845
2025-09-11 14:20:54,1476219
2025-09-11 14:20:54,1476109
2025-09-11 14:20:54,1475003
2025-09-11 14:20:54,1473482
2025-09-11 14:20:54,1472401
2025-09-11 14:20:54,1472556
2025-09-11 14:20:54,1473331
2025-09-11 14:20:54,1474667
2025-09-11 14:20:54,1476149
2025-09-11 14:20:54,1476622
2025-09-11 14:20:54,1477303
2025-09-11 14:20:54,1478860
2025-09-11 14:20:54,1481193
2025-09-11 14:20:54,1483968
2025-09-11 14:20:54,1487279
2025-09-11 14:20:54,1491201
2025-09-11 14:20:54,1493041
2025-09-11 14:20:54,1493389
2025-09-11 14:20:54,1492604
2025-09-11 14:20:54,1491057
2025-09-11 14:20:54,1490319
2025-09-11 14:20:54,1490346
2025-09-11 14:20:54,1491389
2025-09-11 14:20:55,1493320
2025-09-11 14:20:55,1495022
2025-09-11 14:20:55,1494660
2025-09-11 14:20:55,1492556
2025-09-11 14:20:55,1491336
2025-09-11 14:20:55,1490996
2025-09-11 14:20:55,1490750
2025-09-11 14:20:55,1490952
2025-09-11 14:20:55,1491858
2025-09-11 14:20:55,1495944
2025-09-11 14:20:55,1500654
2025-09-11 14:20:55,1502587
2025-09-11 14:20:55,1503504
2025-09-11 14:20:55,1504934
2025-09-11 14:20:55,1506998
2025-09-11 14:20:55,1509440
2025-09-11 14:20:55,1511595
2025-09-11 14:20:55,1513388
2025-09-11 14:20:55,1514141
2025-09-11 14:20:55,1514012
2025-09-11 14:20:55,1513428
2025-09-11 14:20:55,1502306
2025-09-11 14:20:55,1512154
2025-09-11 14:20:55,1513221
2025-09-11 14:20:55,1511234
2025-09-11 14:20:55,1507257
2025-09-11 14:20:55,1499333
2025-09-11 14:20:55,1489760
2025-09-11 14:20:55,1496398
2025-09-11 14:20:55,1519951
2025-09-11 14:20:55,1521586
2025-09-11 14:20:55,1510674
2025-09-11 14:20:55,1506931
2025-09-11 14:20:55,1508151
2025-09-11 14:20:55,1510606
2025-09-11 14:20:55,1512162
2025-09-11 14:20:55,1512558
2025-09-11 14:20:55,1511408
2025-09-11 14:20:55,1508550
2025-09-11 14:20:55,1504650
2025-09-11 14:20:55,1498901
2025-09-11 14:20:55,1491521
2025-09-11 14:20:55,1484530
2025-09-11 14:20:55,1478614
2025-09-11 14:20:55,1475606
2025-09-11 14:20:55,1476523
2025-09-11 14:20:55,1480307
2025-09-11 14:20:55,1484450
2025-09-11 14:20:55,1488135
2025-09-11 14:20:55,1490763
2025-09-11 14:20:55,1492059
2025-09-11 14:20:55,1492648
2025-09-11 14:20:55,1492315
2025-09-11 14:20:55,1491490
2025-09-11 14:20:55,1489809
2025-09-11 14:20:55,1488466
2025-09-11 14:20:55,1487292
2025-09-11 14:20:55,1485819
2025-09-11 14:20:55,1484894
2025-09-11 14:20:55,1484963
2025-09-11 14:20:55,1485524
2025-09-11 14:20:55,1486957
2025-09-11 14:20:55,1487914
2025-09-11 14:20:55,1488730
2025-09-11 14:20:55,1489304
2025-09-11 14:20:55,1490028
2025-09-11 14:20:55,1490975
2025-09-11 14:20:55,1491728
2025-09-11 14:20:55,1492605
2025-09-11 14:20:55,1493015
2025-09-11 14:20:55,1492817
2025-09-11 14:20:55,1493400
2025-09-11 14:20:55,1494569
2025-09-11 14:20:55,1496391
2025-09-11 14:20:55,1498953
2025-09-11 14:20:55,1501500
2025-09-11 14:20:55,1503678
2025-09-11 14:20:55,1505766
2025-09-11 14:20:55,1507420
2025-09-11 14:20:55,1508670
2025-09-11 14:20:55,1510129
2025-09-11 14:20:55,1511994
2025-09-11 14:20:55,1513767
2025-09-11 14:20:55,1514585
2025-09-11 14:20:55,1514110
2025-09-11 14:20:55,1513037
2025-09-11 14:20:55,1511881
2025-09-11 14:20:55,1510706
2025-09-11 14:20:55,1508822
2025-09-11 14:20:55,1505568
2025-09-11 14:20:55,1500529
2025-09-11 14:20:55,1493566
2025-09-11 14:20:55,1485030
2025-09-11 14:20:55,1475400
2025-09-11 14:20:55,1466735
2025-09-11 14:20:55,1462409
2025-09-11 14:20:55,1463624
2025-09-11 14:20:55,1467356
2025-09-11 14:20:55,1472281
2025-09-11 14:20:55,1475619
2025-09-11 14:20:56,1475849
2025-09-11 14:20:56,1474198
2025-09-11 14:20:56,1471900
2025-09-11 14:20:56,1469377
2025-09-11 14:20:56,1466511
2025-09-11 14:20:56,1463303
2025-09-11 14:20:56,1459836
2025-09-11 14:20:56,1457003
2025-09-11 14:20:56,1455142
2025-09-11 14:20:56,1454267
2025-09-11 14:20:56,1454350
2025-09-11 14:20:56,1455121
2025-09-11 14:20:56,1456229
2025-09-11 14:20:56,1457245
2025-09-11 14:20:56,1458129
2025-09-11 14:20:56,1457977
2025-09-11 14:20:56,1457540
2025-09-11 14:20:56,1457480
2025-09-11 14:20:56,1457449
2025-09-11 14:20:56,1457857
2025-09-11 14:20:56,1458868
2025-09-11 14:20:56,1460274
2025-09-11 14:20:56,1461506
2025-09-11 14:20:56,1461710
2025-09-11 14:20:56,1462137
2025-09-11 14:20:56,1462412
2025-09-11 14:20:56,1462742
2025-09-11 14:20:56,1463102
2025-09-11 14:20:56,1463662
2025-09-11 14:20:56,1464298
2025-09-11 14:20:56,1465278
2025-09-11 14:20:56,1465645
2025-09-11 14:20:56,1466032
2025-09-11 14:20:56,1466408
2025-09-11 14:20:56,1466518
2025-09-11 14:20:56,1466740
2025-09-11 14:20:56,1466751
2025-09-11 14:20:56,1466798
2025-09-11 14:20:56,1466525
2025-09-11 14:20:56,1466172
2025-09-11 14:20:56,1465521
2025-09-11 14:20:56,1465025
2025-09-11 14:20:56,1464475
2025-09-11 14:20:56,1463960
2025-09-11 14:20:56,1463520
2025-09-11 14:20:56,1463193
2025-09-11 14:20:56,1462951
2025-09-11 14:20:56,1462773
2025-09-11 14:20:56,1462398
2025-09-11 14:20:56,1462043
2025-09-11 14:20:56,1461731
2025-09-11 14:20:56,1461296
2025-09-11 14:20:56,1461034
2025-09-11 14:20:56,1460929
2025-09-11 14:20:56,1460608
2025-09-11 14:20:56,1460401
2025-09-11 14:20:56,1460106
2025-09-11 14:20:56,1459739
2025-09-11 14:20:56,1459463
2025-09-11 14:20:56,1459141
2025-09-11 14:20:56,1458861
2025-09-11 14:20:56,1458829
2025-09-11 14:20:56,1458654
2025-09-11 14:20:56,1458578
2025-09-11 14:20:56,1458491
2025-09-11 14:20:56,1458283
2025-09-11 14:20:56,1458036
2025-09-11 14:20:56,1457665
2025-09-11 14:20:56,1457522
2025-09-11 14:20:56,1457304
2025-09-11 14:20:56,1457261
2025-09-11 14:20:56,1457110
2025-09-11 14:20:56,1457085
2025-09-11 14:20:56,1456898
2025-09-11 14:20:56,1456755
2025-09-11 14:20:56,1456454
2025-09-11 14:20:56,1456241
2025-09-11 14:20:56,1456081
2025-09-11 14:20:56,1455793
2025-09-11 14:20:56,1455823
2025-09-11 14:20:56,1455728
2025-09-11 14:20:56,1455697
2025-09-11 14:20:56,1455588
2025-09-11 14:20:56,1455523
2025-09-11 14:20:56,1455442
2025-09-11 14:20:56,1455375
2025-09-11 14:20:56,1455408
2025-09-11 14:20:56,1455360
2025-09-11 14:20:56,1455305
2025-09-11 14:20:56,1455199
2025-09-11 14:20:56,1455098
2025-09-11 14:20:56,1454940
2025-09-11 14:20:56,1454920
2025-09-11 14:20:56,1454823
2025-09-11 14:20:56,1454857
2025-09-11 14:20:56,1454755
2025-09-11 14:20:56,1454514
2025-09-11 14:20:56,1454478
2025-09-11 14:20:56,1454273
2025-09-11 14:20:56,1454089
2025-09-11 14:20:57,1454068
2025-09-11 14:20:57,1454032
2025-09-11 14:20:57,1453838
2025-09-11 14:20:57,1453668
2025-09-11 14:20:57,1453228
2025-09-11 14:20:57,1452612
2025-09-11 14:20:57,1451950
2025-09-11 14:20:57,1451370
2025-09-11 14:20:57,1450841
2025-09-11 14:20:57,1450276
2025-09-11 14:20:57,1449938
2025-09-11 14:20:57,1449828
2025-09-11 14:20:57,1449617
2025-09-11 14:20:57,1449394
2025-09-11 14:20:57,1448972
2025-09-11 14:20:57,1448456
2025-09-11 14:20:57,1448101
2025-09-11 14:20:57,1447656
2025-09-11 14:20:57,1447436
2025-09-11 14:20:57,1447130
2025-09-11 14:20:57,1446851
2025-09-11 14:20:57,1446572
2025-09-11 14:20:57,1446338
2025-09-11 14:20:57,1446179
2025-09-11 14:20:57,1446069
2025-09-11 14:20:57,1445854
2025-09-11 14:20:57,1445807
2025-09-11 14:20:57,1445785
2025-09-11 14:20:57,1445808
2025-09-11 14:20:57,1445817
2025-09-11 14:20:57,1445785
2025-09-11 14:20:57,1445826
2025-09-11 14:20:57,1445785
2025-09-11 14:20:57,1445991
2025-09-11 14:20:57,1445787
2025-09-11 14:20:57,1445685
2025-09-11 14:20:57,1445507
2025-09-11 14:20:57,1445424
2025-09-11 14:20:57,1445178
2025-09-11 14:20:57,1445134
2025-09-11 14:20:57,1445017
2025-09-11 14:20:57,1445060
2025-09-11 14:20:57,1444972
2025-09-11 14:20:57,1444927
2025-09-11 14:20:57,1444798
2025-09-11 14:20:57,1444619
2025-09-11 14:20:57,1444395
2025-09-11 14:20:57,1444191
2025-09-11 14:20:57,1444266
2025-09-11 14:20:57,1444136
2025-09-11 14:20:57,1444070
2025-09-11 14:20:57,1444103
2025-09-11 14:20:57,1443655
2025-09-11 14:20:57,1443049
2025-09-11 14:20:57,1442434
2025-09-11 14:20:57,1441842
2025-09-11 14:20:57,1441397
2025-09-11 14:20:57,1441105
2025-09-11 14:20:57,1440871
2025-09-11 14:20:57,1440574
2025-09-11 14:20:57,1440245
2025-09-11 14:20:57,1440021
2025-09-11 14:20:57,1439660
2025-09-11 14:20:57,1439520
2025-09-11 14:20:57,1439524
2025-09-11 14:20:57,1439638
2025-09-11 14:20:57,1439623
2025-09-11 14:20:57,1439555
2025-09-11 14:20:57,1439660
2025-09-11 14:20:57,1439696
2025-09-11 14:20:57,1439544
2025-09-11 14:20:57,1439676
2025-09-11 14:20:57,1439628
2025-09-11 14:20:57,1439290
2025-09-11 14:20:57,1439003
2025-09-11 14:20:57,1438734
2025-09-11 14:20:57,1438532
2025-09-11 14:20:57,1438394
2025-09-11 14:20:57,1438193
2025-09-11 14:20:57,1437925
2025-09-11 14:20:57,1437813
2025-09-11 14:20:57,1437832
2025-09-11 14:20:57,1437643
2025-09-11 14:20:57,1437599
2025-09-11 14:20:57,1437625
2025-09-11 14:20:57,1437696
2025-09-11 14:20:57,1437679
2025-09-11 14:20:57,1437828
2025-09-11 14:20:57,1437758
2025-09-11 14:20:57,1437691
2025-09-11 14:20:57,1437596
2025-09-11 14:20:57,1437552
2025-09-11 14:20:57,1437513
2025-09-11 14:20:57,1437490
2025-09-11 14:20:57,1437522
2025-09-11 14:20:57,1437534
2025-09-11 14:20:57,1437583
2025-09-11 14:20:57,1437621
2025-09-11 14:20:57,1437580
2025-09-11 14:20:57,1437619
2025-09-11 14:20:58,1437608
2025-09-11 14:20:58,1437616
2025-09-11 14:20:58,1437700
2025-09-11 14:20:58,1437749
2025-09-11 14:20:58,1437725
2025-09-11 14:20:58,1437697
2025-09-11 14:20:58,1437430
2025-09-11 14:20:58,1437153
2025-09-11 14:20:58,1437015
2025-09-11 14:20:58,1436879
2025-09-11 14:20:58,1436733
2025-09-11 14:20:58,1436665
2025-09-11 14:20:58,1436728
2025-09-11 14:20:58,1436645
2025-09-11 14:20:58,1436600
2025-09-11 14:20:58,1436566
2025-09-11 14:20:58,1436545
2025-09-11 14:20:58,1436539
2025-09-11 14:20:58,1436798
2025-09-11 14:20:58,1436848
2025-09-11 14:20:58,1436993
2025-09-11 14:20:58,1437148
2025-09-11 14:20:58,1437332
2025-09-11 14:20:58,1437568
2025-09-11 14:20:58,1437826
2025-09-11 14:20:58,1438351
2025-09-11 14:20:58,1438771
2025-09-11 14:20:58,1439296
2025-09-11 14:20:58,1439945
2025-09-11 14:20:58,1440689
2025-09-11 14:20:58,1441169
2025-09-11 14:20:58,1441778
2025-09-11 14:20:58,1442418
2025-09-11 14:20:58,1443004
2025-09-11 14:20:58,1443515
2025-09-11 14:20:58,1443964
2025-09-11 14:20:58,1444502
2025-09-11 14:20:58,1445013
2025-09-11 14:20:58,1445407
2025-09-11 14:20:58,1445680
2025-09-11 14:20:58,1445800
2025-09-11 14:20:58,1445806
2025-09-11 14:20:58,1445848
2025-09-11 14:20:58,1445919
2025-09-11 14:20:58,1445590
2025-09-11 14:20:58,1445311
2025-09-11 14:20:58,1445143
2025-09-11 14:20:58,1445138
2025-09-11 14:20:58,1445178
2025-09-11 14:20:58,1445378
2025-09-11 14:20:58,1445732
2025-09-11 14:20:58,1445986
2025-09-11 14:20:58,1446065
2025-09-11 14:20:58,1445734
2025-09-11 14:20:58,1445411
2025-09-11 14:20:58,1445209
2025-09-11 14:20:58,1444973
2025-09-11 14:20:58,1444878
2025-09-11 14:20:58,1444874
2025-09-11 14:20:58,1445234
2025-09-11 14:20:58,1445365
2025-09-11 14:20:58,1445542
2025-09-11 14:20:58,1445536
2025-09-11 14:20:58,1445477
2025-09-11 14:20:58,1445589
2025-09-11 14:20:58,1445570
2025-09-11 14:20:58,1445642
2025-09-11 14:20:58,1445810
2025-09-11 14:20:58,1445958
2025-09-11 14:20:58,1446061
2025-09-11 14:20:58,1446154
2025-09-11 14:20:58,1446127
2025-09-11 14:20:58,1446173
2025-09-11 14:20:58,1446051
2025-09-11 14:20:58,1446106
2025-09-11 14:20:58,1446176
2025-09-11 14:20:58,1446253
2025-09-11 14:20:58,1446383
2025-09-11 14:20:58,1446609
2025-09-11 14:20:58,1446739
2025-09-11 14:20:58,1446675
2025-09-11 14:20:58,1446530
2025-09-11 14:20:58,1446365
2025-09-11 14:20:58,1446294
2025-09-11 14:20:58,1446075
2025-09-11 14:20:58,1446068
2025-09-11 14:20:58,1446183
2025-09-11 14:20:58,1446292
2025-09-11 14:20:58,1446429
2025-09-11 14:20:58,1446508
2025-09-11 14:20:58,1446532
2025-09-11 14:20:58,1446646
2025-09-11 14:20:58,1446669
2025-09-11 14:20:58,1446666
2025-09-11 14:20:58,1446875
2025-09-11 14:20:58,1446857
2025-09-11 14:20:58,1446836
2025-09-11 14:20:58,1446921
2025-09-11 14:20:58,1446914
2025-09-11 14:20:58,1446901
2025-09-11 14:20:59,1446924
2025-09-11 14:20:59,1447039
2025-09-11 14:20:59,1447193
2025-09-11 14:20:59,1447185
2025-09-11 14:20:59,1447241
2025-09-11 14:20:59,1447141
2025-09-11 14:20:59,1446719
2025-09-11 14:20:59,1446191
2025-09-11 14:20:59,1445633
2025-09-11 14:20:59,1445049
2025-09-11 14:20:59,1444639
2025-09-11 14:20:59,1444250
2025-09-11 14:20:59,1443910
2025-09-11 14:20:59,1443603
2025-09-11 14:20:59,1443311
2025-09-11 14:20:59,1443117
2025-09-11 14:20:59,1442944
2025-09-11 14:20:59,1442860
2025-09-11 14:20:59,1442887
2025-09-11 14:20:59,1442830
2025-09-11 14:20:59,1442834
2025-09-11 14:20:59,1442828
2025-09-11 14:20:59,1442685
2025-09-11 14:20:59,1442673
2025-09-11 14:20:59,1442476
2025-09-11 14:20:59,1442298
2025-09-11 14:20:59,1442176
2025-09-11 14:20:59,1442145
2025-09-11 14:20:59,1442135
2025-09-11 14:20:59,1442048
2025-09-11 14:20:59,1442128
2025-09-11 14:20:59,1442222
2025-09-11 14:20:59,1442247
2025-09-11 14:20:59,1442300
2025-09-11 14:20:59,1442150
2025-09-11 14:20:59,1442135
2025-09-11 14:20:59,1442041
2025-09-11 14:20:59,1442060
2025-09-11 14:20:59,1442086
2025-09-11 14:20:59,1442181
2025-09-11 14:20:59,1442078
2025-09-11 14:20:59,1442158
2025-09-11 14:20:59,1442094
2025-09-11 14:20:59,1441914
2025-09-11 14:20:59,1441781
2025-09-11 14:20:59,1441617
2025-09-11 14:20:59,1441721
2025-09-11 14:20:59,1441708
2025-09-11 14:20:59,1441880
2025-09-11 14:20:59,1441875
2025-09-11 14:20:59,1441908
2025-09-11 14:20:59,1441864
2025-09-11 14:20:59,1441761
2025-09-11 14:20:59,1441776
2025-09-11 14:20:59,1441797
2025-09-11 14:20:59,1441792
2025-09-11 14:20:59,1441864
2025-09-11 14:20:59,1441976
2025-09-11 14:20:59,1442142
2025-09-11 14:20:59,1442140
2025-09-11 14:20:59,1442194
2025-09-11 14:20:59,1442097
2025-09-11 14:20:59,1442128
2025-09-11 14:20:59,1442225
2025-09-11 14:20:59,1442300
2025-09-11 14:20:59,1442244
2025-09-11 14:20:59,1442451
2025-09-11 14:20:59,1442594
2025-09-11 14:20:59,1442596
2025-09-11 14:20:59,1442584
2025-09-11 14:20:59,1442538
2025-09-11 14:20:59,1442646
2025-09-11 14:20:59,1442595
2025-09-11 14:20:59,1442494
2025-09-11 14:20:59,1442230
2025-09-11 14:20:59,1441776
2025-09-11 14:20:59,1441376
2025-09-11 14:20:59,1440950
2025-09-11 14:20:59,1440631
2025-09-11 14:20:59,1440384
2025-09-11 14:20:59,1440183
2025-09-11 14:20:59,1439918
2025-09-11 14:20:59,1439649
2025-09-11 14:20:59,1439344
2025-09-11 14:20:59,1439238
2025-09-11 14:20:59,1439182
2025-09-11 14:20:59,1439153
2025-09-11 14:20:59,1439109
2025-09-11 14:20:59,1439142
2025-09-11 14:20:59,1439191
2025-09-11 14:20:59,1439205
2025-09-11 14:20:59,1439058
2025-09-11 14:20:59,1438988
2025-09-11 14:20:59,1438797
2025-09-11 14:20:59,1438890
2025-09-11 14:20:59,1438744
2025-09-11 14:20:59,1438839
2025-09-11 14:20:59,1438902
2025-09-11 14:20:59,1439062
2025-09-11 14:20:59,1439142
2025-09-11 14:21:00,1439092
2025-09-11 14:21:00,1438957
2025-09-11 14:21:00,1438861
2025-09-11 14:21:00,1438845
2025-09-11 14:21:00,1438855
2025-09-11 14:21:00,1438886
2025-09-11 14:21:00,1438861
2025-09-11 14:21:00,1438895
2025-09-11 14:21:00,1438968
2025-09-11 14:21:00,1438958
2025-09-11 14:21:00,1438812
2025-09-11 14:21:00,1438877
2025-09-11 14:21:00,1438785
2025-09-11 14:21:00,1438768
2025-09-11 14:21:00,1438846
2025-09-11 14:21:00,1438925
2025-09-11 14:21:00,1438961
2025-09-11 14:21:00,1439002
2025-09-11 14:21:00,1438994
2025-09-11 14:21:00,1438964
2025-09-11 14:21:00,1438976
2025-09-11 14:21:00,1438952
2025-09-11 14:21:00,1438980
2025-09-11 14:21:00,1439050
2025-09-11 14:21:00,1439160
2025-09-11 14:21:00,1439152
2025-09-11 14:21:00,1439210
2025-09-11 14:21:00,1439216
2025-09-11 14:21:00,1439121
2025-09-11 14:21:00,1439178
2025-09-11 14:21:00,1439172
2025-09-11 14:21:00,1439174
2025-09-11 14:21:00,1439176
2025-09-11 14:21:00,1439231
2025-09-11 14:21:00,1439353
2025-09-11 14:21:00,1439303
2025-09-11 14:21:00,1439368
2025-09-11 14:21:00,1439261
2025-09-11 14:21:00,1439413
2025-09-11 14:21:00,1439459
2025-09-11 14:21:00,1439588
2025-09-11 14:21:00,1439625
2025-09-11 14:21:00,1439659
2025-09-11 14:21:00,1439498
2025-09-11 14:21:00,1439257
2025-09-11 14:21:00,1438813
2025-09-11 14:21:00,1438415
2025-09-11 14:21:00,1438056
2025-09-11 14:21:00,1437643
2025-09-11 14:21:00,1437379
2025-09-11 14:21:00,1436970
2025-09-11 14:21:00,1436685
2025-09-11 14:21:00,1436362
2025-09-11 14:21:00,1436159
2025-09-11 14:21:00,1436089
2025-09-11 14:21:00,1436010
2025-09-11 14:21:00,1435984
2025-09-11 14:21:00,1435895
2025-09-11 14:21:00,1435822
2025-09-11 14:21:00,1435769
2025-09-11 14:21:00,1435616
2025-09-11 14:21:00,1435635
2025-09-11 14:21:00,1435596
2025-09-11 14:21:00,1435692
2025-09-11 14:21:00,1435632
2025-09-11 14:21:00,1435581
2025-09-11 14:21:00,1435650
2025-09-11 14:21:00,1435673
2025-09-11 14:21:00,1435712
2025-09-11 14:21:00,1435725
2025-09-11 14:21:00,1435800
2025-09-11 14:21:00,1435794
2025-09-11 14:21:00,1436023
2025-09-11 14:21:00,1436031
2025-09-11 14:21:00,1436010
2025-09-11 14:21:00,1436029
2025-09-11 14:21:00,1435936
2025-09-11 14:21:00,1435939
2025-09-11 14:21:00,1435849
2025-09-11 14:21:00,1435828
2025-09-11 14:21:00,1435767
2025-09-11 14:21:00,1435784
2025-09-11 14:21:00,1435689
2025-09-11 14:21:00,1435620
2025-09-11 14:21:00,1435551
2025-09-11 14:21:00,1435624
2025-09-11 14:21:00,1435641
2025-09-11 14:21:00,1435609
2025-09-11 14:21:00,1435583
2025-09-11 14:21:00,1435483
2025-09-11 14:21:00,1435549
2025-09-11 14:21:00,1435542
2025-09-11 14:21:00,1435537
2025-09-11 14:21:00,1435542
2025-09-11 14:21:00,1435603
2025-09-11 14:21:00,1435683
2025-09-11 14:21:00,1435696
2025-09-11 14:21:00,1435760
2025-09-11 14:21:00,1435755
2025-09-11 14:21:00,1435853
2025-09-11 14:21:01,1435808
2025-09-11 14:21:01,1435795
2025-09-11 14:21:01,1435861
2025-09-11 14:21:01,1435913
2025-09-11 14:21:01,1436088
2025-09-11 14:21:01,1436156
2025-09-11 14:21:01,1436151
2025-09-11 14:21:01,1436189
2025-09-11 14:21:01,1436127
2025-09-11 14:21:01,1436024
2025-09-11 14:21:01,1435734
2025-09-11 14:21:01,1435327
2025-09-11 14:21:01,1434959
2025-09-11 14:21:01,1434583
2025-09-11 14:21:01,1434240
2025-09-11 14:21:01,1433830
2025-09-11 14:21:01,1433647
2025-09-11 14:21:01,1433410
2025-09-11 14:21:01,1433318
2025-09-11 14:21:01,1433376
2025-09-11 14:21:01,1433282
2025-09-11 14:21:01,1433302
2025-09-11 14:21:01,1433250
2025-09-11 14:21:01,1433305
2025-09-11 14:21:01,1433318
2025-09-11 14:21:01,1433302
2025-09-11 14:21:01,1433364
2025-09-11 14:21:01,1433362
2025-09-11 14:21:01,1433418
2025-09-11 14:21:01,1433449
2025-09-11 14:21:01,1433515
2025-09-11 14:21:01,1433494
2025-09-11 14:21:01,1433586
2025-09-11 14:21:01,1433561
2025-09-11 14:21:01,1433680
2025-09-11 14:21:01,1433831
2025-09-11 14:21:01,1433870
2025-09-11 14:21:01,1433860
2025-09-11 14:21:01,1433952
2025-09-11 14:21:01,1433884
2025-09-11 14:21:01,1433914
2025-09-11 14:21:01,1433799
2025-09-11 14:21:01,1433684
2025-09-11 14:21:01,1433674
2025-09-11 14:21:01,1433699
2025-09-11 14:21:01,1433678
2025-09-11 14:21:01,1433631
2025-09-11 14:21:01,1433624
2025-09-11 14:21:01,1433598
2025-09-11 14:21:01,1433558
2025-09-11 14:21:01,1433521
2025-09-11 14:21:01,1433527
2025-09-11 14:21:01,1433511
2025-09-11 14:21:01,1433464
2025-09-11 14:21:01,1433555
2025-09-11 14:21:01,1433590
2025-09-11 14:21:01,1433737
2025-09-11 14:21:01,1433726
2025-09-11 14:21:01,1433753
2025-09-11 14:21:01,1433777
2025-09-11 14:21:01,1433790
2025-09-11 14:21:01,1433705
2025-09-11 14:21:01,1433838
2025-09-11 14:21:01,1433837
2025-09-11 14:21:01,1433889
2025-09-11 14:21:01,1433895
2025-09-11 14:21:01,1433934
2025-09-11 14:21:01,1433943
2025-09-11 14:21:01,1434097
2025-09-11 14:21:01,1434110
2025-09-11 14:21:01,1434212
2025-09-11 14:21:01,1434310
2025-09-11 14:21:01,1434473
2025-09-11 14:21:01,1434489
2025-09-11 14:21:01,1434551
2025-09-11 14:21:01,1434449
2025-09-11 14:21:01,1434172
2025-09-11 14:21:01,1433928
2025-09-11 14:21:01,1433515
2025-09-11 14:21:01,1433153
2025-09-11 14:21:01,1432863
2025-09-11 14:21:01,1432512
2025-09-11 14:21:01,1432374
2025-09-11 14:21:01,1432262
2025-09-11 14:21:01,1432147
2025-09-11 14:21:01,1432154
2025-09-11 14:21:01,1432151
2025-09-11 14:21:01,1432169
2025-09-11 14:21:01,1432211
2025-09-11 14:21:01,1432222
2025-09-11 14:21:01,1432221
2025-09-11 14:21:01,1432290
2025-09-11 14:21:01,1432257
2025-09-11 14:21:01,1432280
2025-09-11 14:21:01,1432306
2025-09-11 14:21:01,1432299
2025-09-11 14:21:01,1432277
2025-09-11 14:21:01,1432252
2025-09-11 14:21:01,1432262
2025-09-11 14:21:01,1432314
2025-09-11 14:21:02,1432405
2025-09-11 14:21:02,1432567
2025-09-11 14:21:02,1432625
2025-09-11 14:21:02,1432588
2025-09-11 14:21:02,1432644
2025-09-11 14:21:02,1432845
2025-09-11 14:21:02,1432772
2025-09-11 14:21:02,1432703
2025-09-11 14:21:02,1432706
2025-09-11 14:21:02,1432725
2025-09-11 14:21:02,1432720
2025-09-11 14:21:02,1432698
2025-09-11 14:21:02,1432683
2025-09-11 14:21:02,1432760
2025-09-11 14:21:02,1432900
2025-09-11 14:21:02,1432834
2025-09-11 14:21:02,1432846
2025-09-11 14:21:02,1432979
2025-09-11 14:21:02,1433078
2025-09-11 14:21:02,1433353
2025-09-11 14:21:02,1433632
2025-09-11 14:21:02,1433697
2025-09-11 14:21:02,1433736
2025-09-11 14:21:02,1433888
2025-09-11 14:21:02,1434060
2025-09-11 14:21:02,1434048
2025-09-11 14:21:02,1434155
2025-09-11 14:21:02,1434304
2025-09-11 14:21:02,1434653
2025-09-11 14:21:02,1434723
2025-09-11 14:21:02,1434765
2025-09-11 14:21:02,1434793
2025-09-11 14:21:02,1434863
2025-09-11 14:21:02,1434842
2025-09-11 14:21:02,1434888
2025-09-11 14:21:02,1434988
2025-09-11 14:21:02,1435085
2025-09-11 14:21:02,1435214
2025-09-11 14:21:02,1435350
2025-09-11 14:21:02,1435434
2025-09-11 14:21:02,1435525
2025-09-11 14:21:02,1435505
2025-09-11 14:21:02,1435494
2025-09-11 14:21:02,1435465
2025-09-11 14:21:02,1435281
2025-09-11 14:21:02,1434929
2025-09-11 14:21:02,1434536
2025-09-11 14:21:02,1434130
2025-09-11 14:21:02,1433943
2025-09-11 14:21:02,1433649
2025-09-11 14:21:02,1433511
2025-09-11 14:21:02,1433260
2025-09-11 14:21:02,1433137
2025-09-11 14:21:02,1433076
2025-09-11 14:21:02,1433034
2025-09-11 14:21:02,1433001
2025-09-11 14:21:02,1433024
2025-09-11 14:21:02,1433009
2025-09-11 14:21:02,1433115
2025-09-11 14:21:02,1433069
2025-09-11 14:21:02,1433066
2025-09-11 14:21:02,1432973
2025-09-11 14:21:02,1432940
2025-09-11 14:21:02,1432945
2025-09-11 14:21:02,1432920
2025-09-11 14:21:02,1432955
2025-09-11 14:21:02,1433039
2025-09-11 14:21:02,1432934
2025-09-11 14:21:02,1432955
2025-09-11 14:21:02,1433023
2025-09-11 14:21:02,1433070
2025-09-11 14:21:02,1433071
2025-09-11 14:21:02,1433022
2025-09-11 14:21:02,1433169
2025-09-11 14:21:02,1433117
2025-09-11 14:21:02,1433136
2025-09-11 14:21:02,1433207
2025-09-11 14:21:02,1433089
2025-09-11 14:21:02,1432939
2025-09-11 14:21:02,1432976
2025-09-11 14:21:02,1432875
2025-09-11 14:21:02,1432850
2025-09-11 14:21:02,1432866
2025-09-11 14:21:02,1432953
2025-09-11 14:21:02,1432956
2025-09-11 14:21:02,1432935
2025-09-11 14:21:02,1432981
2025-09-11 14:21:02,1432910
2025-09-11 14:21:02,1432842
2025-09-11 14:21:02,1432899
2025-09-11 14:21:02,1432882
2025-09-11 14:21:02,1432948
2025-09-11 14:21:02,1432988
2025-09-11 14:21:02,1433089
2025-09-11 14:21:02,1433048
2025-09-11 14:21:02,1433083
2025-09-11 14:21:02,1433201
2025-09-11 14:21:02,1433205
2025-09-11 14:21:02,1433083
2025-09-11 14:21:02,1433137
2025-09-11 14:21:03,1433273
2025-09-11 14:21:03,1433238
2025-09-11 14:21:03,1433268
2025-09-11 14:21:03,1433432
2025-09-11 14:21:03,1433427
2025-09-11 14:21:03,1433461
2025-09-11 14:21:03,1433382
2025-09-11 14:21:03,1433402
2025-09-11 14:21:03,1433400
2025-09-11 14:21:03,1433481
2025-09-11 14:21:03,1433559
2025-09-11 14:21:03,1433645
2025-09-11 14:21:03,1433827
2025-09-11 14:21:03,1433867
2025-09-11 14:21:03,1433839
2025-09-11 14:21:03,1433896
2025-09-11 14:21:03,1433769
2025-09-11 14:21:03,1433577
2025-09-11 14:21:03,1433203
2025-09-11 14:21:03,1432779
2025-09-11 14:21:03,1432432
2025-09-11 14:21:03,1432071
2025-09-11 14:21:03,1431827
2025-09-11 14:21:03,1431565
2025-09-11 14:21:03,1431282
2025-09-11 14:21:03,1431070
2025-09-11 14:21:03,1431058
2025-09-11 14:21:03,1431101
2025-09-11 14:21:03,1431074
2025-09-11 14:21:03,1431001
2025-09-11 14:21:03,1431013
2025-09-11 14:21:03,1431063
2025-09-11 14:21:03,1431082
2025-09-11 14:21:03,1431039
2025-09-11 14:21:03,1431059
2025-09-11 14:21:03,1431157
2025-09-11 14:21:03,1431003
2025-09-11 14:21:03,1430983
2025-09-11 14:21:03,1430933
2025-09-11 14:21:03,1430932
2025-09-11 14:21:03,1430938
2025-09-11 14:21:03,1431007
2025-09-11 14:21:03,1431106
2025-09-11 14:21:03,1431154
2025-09-11 14:21:03,1431219
2025-09-11 14:21:03,1431256
2025-09-11 14:21:03,1431278
2025-09-11 14:21:03,1431370
2025-09-11 14:21:03,1431401
2025-09-11 14:21:03,1431383
2025-09-11 14:21:03,1431441
2025-09-11 14:21:03,1431388
2025-09-11 14:21:03,1431431
2025-09-11 14:21:03,1431277
2025-09-11 14:21:03,1431333
2025-09-11 14:21:03,1431285
2025-09-11 14:21:03,1431293
2025-09-11 14:21:03,1431357
2025-09-11 14:21:03,1431442
2025-09-11 14:21:03,1431444
2025-09-11 14:21:03,1431464
2025-09-11 14:21:03,1431416
2025-09-11 14:21:03,1431443
2025-09-11 14:21:03,1431413
2025-09-11 14:21:03,1431489
2025-09-11 14:21:03,1431571
2025-09-11 14:21:03,1431669
2025-09-11 14:21:03,1431678
2025-09-11 14:21:03,1431745
2025-09-11 14:21:03,1431801
2025-09-11 14:21:03,1431876
2025-09-11 14:21:03,1431942
2025-09-11 14:21:03,1432026
2025-09-11 14:21:03,1431950
2025-09-11 14:21:03,1432086
2025-09-11 14:21:03,1432092
2025-09-11 14:21:03,1432150
2025-09-11 14:21:03,1432085
2025-09-11 14:21:03,1432168
2025-09-11 14:21:03,1432404
2025-09-11 14:21:03,1432421
2025-09-11 14:21:03,1432459
2025-09-11 14:21:03,1432484
2025-09-11 14:21:03,1432427
2025-09-11 14:21:03,1432448
2025-09-11 14:21:03,1432572
2025-09-11 14:21:03,1432606
2025-09-11 14:21:03,1432742
2025-09-11 14:21:03,1432803
2025-09-11 14:21:03,1432966
2025-09-11 14:21:03,1432996
2025-09-11 14:21:03,1433054
2025-09-11 14:21:03,1433046
2025-09-11 14:21:03,1433085
2025-09-11 14:21:03,1432873
2025-09-11 14:21:03,1432731
2025-09-11 14:21:03,1432338
2025-09-11 14:21:03,1431946
2025-09-11 14:21:03,1431649
2025-09-11 14:21:04,1431326
2025-09-11 14:21:04,1431035
2025-09-11 14:21:04,1430826
2025-09-11 14:21:04,1430719
2025-09-11 14:21:04,1430763
2025-09-11 14:21:04,1430816
2025-09-11 14:21:04,1430871
2025-09-11 14:21:04,1431026
2025-09-11 14:21:04,1431045
2025-09-11 14:21:04,1430999
2025-09-11 14:21:04,1431110
2025-09-11 14:21:04,1431092
2025-09-11 14:21:04,1431203
2025-09-11 14:21:04,1431120
2025-09-11 14:21:04,1431178
2025-09-11 14:21:04,1431248
2025-09-11 14:21:04,1431278
2025-09-11 14:21:04,1431306
2025-09-11 14:21:04,1431378
2025-09-11 14:21:04,1431382
2025-09-11 14:21:04,1431460
2025-09-11 14:21:04,1431506
2025-09-11 14:21:04,1431612
2025-09-11 14:21:04,1431675
2025-09-11 14:21:04,1431815
2025-09-11 14:21:04,1431848
2025-09-11 14:21:04,1431847
2025-09-11 14:21:04,1431826
2025-09-11 14:21:04,1431819
2025-09-11 14:21:04,1431798
2025-09-11 14:21:04,1431861
2025-09-11 14:21:04,1431771
2025-09-11 14:21:04,1431909
2025-09-11 14:21:04,1431938
2025-09-11 14:21:04,1431949
2025-09-11 14:21:04,1431913
2025-09-11 14:21:04,1431960
2025-09-11 14:21:04,1431937
2025-09-11 14:21:04,1431967
2025-09-11 14:21:04,1432096
2025-09-11 14:21:04,1432160
2025-09-11 14:21:04,1432189
2025-09-11 14:21:04,1432262
2025-09-11 14:21:04,1432344
2025-09-11 14:21:04,1432349
2025-09-11 14:21:04,1432395
2025-09-11 14:21:04,1432461
2025-09-11 14:21:04,1432499
2025-09-11 14:21:04,1432561
2025-09-11 14:21:04,1432628
2025-09-11 14:21:04,1432702
2025-09-11 14:21:04,1432757
2025-09-11 14:21:04,1432762
2025-09-11 14:21:04,1432772
2025-09-11 14:21:04,1432881
2025-09-11 14:21:04,1432902
2025-09-11 14:21:04,1432883
2025-09-11 14:21:04,1433052
2025-09-11 14:21:04,1433074
2025-09-11 14:21:04,1433148
2025-09-11 14:21:04,1433252
2025-09-11 14:21:04,1433140
2025-09-11 14:21:04,1433274
2025-09-11 14:21:04,1433438
2025-09-11 14:21:04,1433449
2025-09-11 14:21:04,1433480
2025-09-11 14:21:04,1433388
2025-09-11 14:21:04,1433138
2025-09-11 14:21:04,1432807
2025-09-11 14:21:04,1432464
2025-09-11 14:21:04,1432064
2025-09-11 14:21:04,1431791
2025-09-11 14:21:04,1431499
2025-09-11 14:21:04,1431269
2025-09-11 14:21:04,1431207
2025-09-11 14:21:04,1431074
2025-09-11 14:21:04,1431002
2025-09-11 14:21:04,1431025
2025-09-11 14:21:04,1430903
2025-09-11 14:21:04,1430930
2025-09-11 14:21:04,1430906
2025-09-11 14:21:04,1430945
2025-09-11 14:21:04,1430890
2025-09-11 14:21:04,1430840
2025-09-11 14:21:04,1430988
2025-09-11 14:21:04,1430811
2025-09-11 14:21:04,1430920
2025-09-11 14:21:04,1430795
2025-09-11 14:21:04,1430819
2025-09-11 14:21:04,1430880
2025-09-11 14:21:04,1430847
2025-09-11 14:21:04,1430921
2025-09-11 14:21:04,1430980
2025-09-11 14:21:04,1431011
2025-09-11 14:21:04,1431154
2025-09-11 14:21:04,1431173
2025-09-11 14:21:04,1431191
2025-09-11 14:21:04,1431199
2025-09-11 14:21:04,1431282
2025-09-11 14:21:04,1431200
2025-09-11 14:21:05,1431004
2025-09-11 14:21:05,1430992
2025-09-11 14:21:05,1430935
2025-09-11 14:21:05,1430956
2025-09-11 14:21:05,1430912
2025-09-11 14:21:05,1430923
2025-09-11 14:21:05,1430872
2025-09-11 14:21:05,1430996
2025-09-11 14:21:05,1430916
2025-09-11 14:21:05,1430966
2025-09-11 14:21:05,1431031
2025-09-11 14:21:05,1431041
2025-09-11 14:21:05,1431035
2025-09-11 14:21:05,1431126
2025-09-11 14:21:05,1431140
2025-09-11 14:21:05,1431136
2025-09-11 14:21:05,1431138
2025-09-11 14:21:05,1431179
2025-09-11 14:21:05,1431222
2025-09-11 14:21:05,1431372
2025-09-11 14:21:05,1431296
2025-09-11 14:21:05,1431447
2025-09-11 14:21:05,1431487
2025-09-11 14:21:05,1431528
2025-09-11 14:21:05,1431555
2025-09-11 14:21:05,1431590
2025-09-11 14:21:05,1431574
2025-09-11 14:21:05,1431710
2025-09-11 14:21:05,1431714
2025-09-11 14:21:05,1431791
2025-09-11 14:21:05,1431890
2025-09-11 14:21:05,1432057
2025-09-11 14:21:05,1432059
2025-09-11 14:21:05,1432154
2025-09-11 14:21:05,1432295
2025-09-11 14:21:05,1432438
2025-09-11 14:21:05,1432543
2025-09-11 14:21:05,1432492
2025-09-11 14:21:05,1432379
2025-09-11 14:21:05,1432111
2025-09-11 14:21:05,1431850
2025-09-11 14:21:05,1431459
2025-09-11 14:21:05,1431076
2025-09-11 14:21:05,1430819
2025-09-11 14:21:05,1430686
2025-09-11 14:21:05,1430620
2025-09-11 14:21:05,1430622
2025-09-11 14:21:05,1430648
2025-09-11 14:21:05,1430589
2025-09-11 14:21:05,1430736
2025-09-11 14:21:05,1430753
2025-09-11 14:21:05,1430830
2025-09-11 14:21:05,1430855
2025-09-11 14:21:05,1430804
2025-09-11 14:21:05,1430863
2025-09-11 14:21:05,1430946
2025-09-11 14:21:05,1430987
2025-09-11 14:21:05,1431056
2025-09-11 14:21:05,1431040
2025-09-11 14:21:05,1431125
2025-09-11 14:21:05,1431287
2025-09-11 14:21:05,1431238
2025-09-11 14:21:05,1431320
2025-09-11 14:21:05,1431413
2025-09-11 14:21:05,1431572
2025-09-11 14:21:05,1431591
2025-09-11 14:21:05,1431749
2025-09-11 14:21:05,1431805
2025-09-11 14:21:05,1431961
2025-09-11 14:21:05,1431886
2025-09-11 14:21:05,1431957
2025-09-11 14:21:05,1431940
2025-09-11 14:21:05,1431931
2025-09-11 14:21:05,1431800
2025-09-11 14:21:05,1431862
2025-09-11 14:21:05,1431853
2025-09-11 14:21:05,1431888
2025-09-11 14:21:05,1431890
2025-09-11 14:21:05,1431616
2025-09-11 14:21:05,1431725
2025-09-11 14:21:05,1431664
2025-09-11 14:21:05,1431772
2025-09-11 14:21:05,1431716
2025-09-11 14:21:05,1431668
2025-09-11 14:21:05,1431703
2025-09-11 14:21:05,1431787
2025-09-11 14:21:05,1431698
2025-09-11 14:21:05,1431656
2025-09-11 14:21:05,1431797
2025-09-11 14:21:05,1431755
2025-09-11 14:21:05,1431794
2025-09-11 14:21:05,1431884
2025-09-11 14:21:05,1431905
2025-09-11 14:21:05,1431844
2025-09-11 14:21:05,1431743
2025-09-11 14:21:05,1431661
2025-09-11 14:21:05,1431660
2025-09-11 14:21:05,1431623
2025-09-11 14:21:05,1431570
2025-09-11 14:21:05,1431736
2025-09-11 14:21:06,1431719
2025-09-11 14:21:06,1431826
2025-09-11 14:21:06,1431707
2025-09-11 14:21:06,1431723
2025-09-11 14:21:06,1431803
2025-09-11 14:21:06,1431810
2025-09-11 14:21:06,1431856
2025-09-11 14:21:06,1431909
2025-09-11 14:21:06,1432136
2025-09-11 14:21:06,1432260
2025-09-11 14:21:06,1432292
2025-09-11 14:21:06,1432367
2025-09-11 14:21:06,1432345
2025-09-11 14:21:06,1432339
2025-09-11 14:21:06,1432303
2025-09-11 14:21:06,1432081
2025-09-11 14:21:06,1431898
2025-09-11 14:21:06,1431529
2025-09-11 14:21:06,1431026
2025-09-11 14:21:06,1430635
2025-09-11 14:21:06,1430351
2025-09-11 14:21:06,1430185
2025-09-11 14:21:06,1429931
2025-09-11 14:21:06,1429904
2025-09-11 14:21:06,1429936
2025-09-11 14:21:06,1429966
2025-09-11 14:21:06,1430055
2025-09-11 14:21:06,1430008
2025-09-11 14:21:06,1430043
2025-09-11 14:21:06,1429988
2025-09-11 14:21:06,1429990
2025-09-11 14:21:06,1429953
2025-09-11 14:21:06,1430047
2025-09-11 14:21:06,1430035
2025-09-11 14:21:06,1430044
2025-09-11 14:21:06,1430116
2025-09-11 14:21:06,1430042
2025-09-11 14:21:06,1429981
2025-09-11 14:21:06,1429913
2025-09-11 14:21:06,1429976
2025-09-11 14:21:06,1430013
2025-09-11 14:21:06,1430099
2025-09-11 14:21:06,1430254
2025-09-11 14:21:06,1430310
2025-09-11 14:21:06,1430358
2025-09-11 14:21:06,1430301
2025-09-11 14:21:06,1430328
2025-09-11 14:21:06,1430299
2025-09-11 14:21:06,1430317
2025-09-11 14:21:06,1430309
2025-09-11 14:21:06,1430318
2025-09-11 14:21:06,1430322
2025-09-11 14:21:06,1430381
2025-09-11 14:21:06,1430281
2025-09-11 14:21:06,1430172
2025-09-11 14:21:06,1430152
2025-09-11 14:21:06,1430180
2025-09-11 14:21:06,1430128
2025-09-11 14:21:06,1430248
2025-09-11 14:21:06,1430313
2025-09-11 14:21:06,1430395
2025-09-11 14:21:06,1430336
2025-09-11 14:21:06,1430336
2025-09-11 14:21:06,1430405
2025-09-11 14:21:06,1430429
2025-09-11 14:21:06,1430503
2025-09-11 14:21:06,1430521
2025-09-11 14:21:06,1430662
2025-09-11 14:21:06,1430714
2025-09-11 14:21:06,1430877
2025-09-11 14:21:06,1430820
2025-09-11 14:21:06,1430903
2025-09-11 14:21:06,1430966
2025-09-11 14:21:06,1431038
2025-09-11 14:21:06,1431119
2025-09-11 14:21:06,1431117
2025-09-11 14:21:06,1431219
2025-09-11 14:21:06,1431346
2025-09-11 14:21:06,1431378
2025-09-11 14:21:06,1431473
2025-09-11 14:21:06,1431490
2025-09-11 14:21:06,1431532
2025-09-11 14:21:06,1431592
2025-09-11 14:21:06,1431711
2025-09-11 14:21:06,1431787
2025-09-11 14:21:06,1431869
2025-09-11 14:21:06,1431946
2025-09-11 14:21:06,1432044
2025-09-11 14:21:06,1432063
2025-09-11 14:21:06,1432099
2025-09-11 14:21:06,1432115
2025-09-11 14:21:06,1431850
2025-09-11 14:21:06,1431611
2025-09-11 14:21:06,1431395
2025-09-11 14:21:06,1430934
2025-09-11 14:21:06,1430680
2025-09-11 14:21:06,1430346
2025-09-11 14:21:06,1429963
2025-09-11 14:21:06,1429849
2025-09-11 14:21:06,1429722
2025-09-11 14:21:07,1429634
2025-09-11 14:21:07,1429661
2025-09-11 14:21:07,1429782
2025-09-11 14:21:07,1429795
2025-09-11 14:21:07,1429819
2025-09-11 14:21:07,1429908
2025-09-11 14:21:07,1429943
2025-09-11 14:21:07,1429936
2025-09-11 14:21:07,1429834
2025-09-11 14:21:07,1429746
2025-09-11 14:21:07,1429798
2025-09-11 14:21:07,1429824
2025-09-11 14:21:07,1429950
2025-09-11 14:21:07,1429949
2025-09-11 14:21:07,1429920
2025-09-11 14:21:07,1430050
2025-09-11 14:21:07,1430003
2025-09-11 14:21:07,1430146
2025-09-11 14:21:07,1430044
2025-09-11 14:21:07,1430198
2025-09-11 14:21:07,1430270
2025-09-11 14:21:07,1430257
2025-09-11 14:21:07,1430384
2025-09-11 14:21:07,1430305
2025-09-11 14:21:07,1430249
2025-09-11 14:21:07,1430145
2025-09-11 14:21:07,1430092
2025-09-11 14:21:07,1430057
2025-09-11 14:21:07,1430010
2025-09-11 14:21:07,1430104
2025-09-11 14:21:07,1430148
2025-09-11 14:21:07,1430081
2025-09-11 14:21:07,1430096
2025-09-11 14:21:07,1429951
2025-09-11 14:21:07,1429861
2025-09-11 14:21:07,1429897
2025-09-11 14:21:07,1429852
2025-09-11 14:21:07,1429970
2025-09-11 14:21:07,1430047
2025-09-11 14:21:07,1430147
2025-09-11 14:21:07,1430097
2025-09-11 14:21:07,1430160
2025-09-11 14:21:07,1430171
2025-09-11 14:21:07,1430242
2025-09-11 14:21:07,1430289
2025-09-11 14:21:07,1430376
2025-09-11 14:21:07,1430475
2025-09-11 14:21:07,1430547
2025-09-11 14:21:07,1430547
2025-09-11 14:21:07,1430598
2025-09-11 14:21:07,1430633
2025-09-11 14:21:07,1430759
2025-09-11 14:21:07,1430760
2025-09-11 14:21:07,1430832
2025-09-11 14:21:07,1430948
2025-09-11 14:21:07,1431046
2025-09-11 14:21:07,1431042
2025-09-11 14:21:07,1431131
2025-09-11 14:21:07,1431225
2025-09-11 14:21:07,1431351
2025-09-11 14:21:07,1431313
2025-09-11 14:21:07,1431423
2025-09-11 14:21:07,1431583
2025-09-11 14:21:07,1431537
2025-09-11 14:21:07,1431393
2025-09-11 14:21:07,1431029
2025-09-11 14:21:07,1430634
2025-09-11 14:21:07,1430204
2025-09-11 14:21:07,1429893
2025-09-11 14:21:07,1429619
2025-09-11 14:21:07,1429350
2025-09-11 14:21:07,1429290
2025-09-11 14:21:07,1429242
2025-09-11 14:21:07,1429156
2025-09-11 14:21:07,1429172
2025-09-11 14:21:07,1429134
2025-09-11 14:21:07,1429094
2025-09-11 14:21:07,1429057
2025-09-11 14:21:07,1428964
2025-09-11 14:21:07,1429053
2025-09-11 14:21:07,1429051
2025-09-11 14:21:07,1429073
2025-09-11 14:21:07,1429165
2025-09-11 14:21:07,1429137
2025-09-11 14:21:07,1429000
2025-09-11 14:21:07,1428972
2025-09-11 14:21:07,1428931
2025-09-11 14:21:07,1428972
2025-09-11 14:21:07,1428988
2025-09-11 14:21:07,1428997
2025-09-11 14:21:07,1429095
2025-09-11 14:21:07,1429078
2025-09-11 14:21:07,1429141
2025-09-11 14:21:07,1429086
2025-09-11 14:21:07,1429196
2025-09-11 14:21:07,1429104
2025-09-11 14:21:07,1429034
2025-09-11 14:21:07,1429032
2025-09-11 14:21:07,1429056
2025-09-11 14:21:07,1429036
2025-09-11 14:21:08,1429105
2025-09-11 14:21:08,1429050
2025-09-11 14:21:08,1429136
2025-09-11 14:21:08,1429136
2025-09-11 14:21:08,1429069
2025-09-11 14:21:08,1429095
2025-09-11 14:21:08,1429066
2025-09-11 14:21:08,1429052
2025-09-11 14:21:08,1429054
2025-09-11 14:21:08,1429075
2025-09-11 14:21:08,1429109
2025-09-11 14:21:08,1429157
2025-09-11 14:21:08,1429149
2025-09-11 14:21:08,1429105
2025-09-11 14:21:08,1429125
2025-09-11 14:21:08,1429160
2025-09-11 14:21:08,1429195
2025-09-11 14:21:08,1429292
2025-09-11 14:21:08,1429335
2025-09-11 14:21:08,1429354
2025-09-11 14:21:08,1429455
2025-09-11 14:21:08,1429484
2025-09-11 14:21:08,1429512
2025-09-11 14:21:08,1429505
2025-09-11 14:21:08,1429558
2025-09-11 14:21:08,1429667
2025-09-11 14:21:08,1429795
2025-09-11 14:21:08,1429857
2025-09-11 14:21:08,1429818
2025-09-11 14:21:08,1429926
2025-09-11 14:21:08,1430050
2025-09-11 14:21:08,1430121
2025-09-11 14:21:08,1430159
2025-09-11 14:21:08,1430232
2025-09-11 14:21:08,1430354
2025-09-11 14:21:08,1430444
2025-09-11 14:21:08,1430528
2025-09-11 14:21:08,1430395
2025-09-11 14:21:08,1430166
2025-09-11 14:21:08,1429729
2025-09-11 14:21:08,1429320
2025-09-11 14:21:08,1429064
2025-09-11 14:21:08,1428683
2025-09-11 14:21:08,1428507
2025-09-11 14:21:08,1428304
2025-09-11 14:21:08,1428070
2025-09-11 14:21:08,1427986
2025-09-11 14:21:08,1427964
2025-09-11 14:21:08,1427862
2025-09-11 14:21:08,1427797
2025-09-11 14:21:08,1427717
2025-09-11 14:21:08,1427788
2025-09-11 14:21:08,1427731
2025-09-11 14:21:08,1427721
2025-09-11 14:21:08,1427678
2025-09-11 14:21:08,1427680
2025-09-11 14:21:08,1427564
2025-09-11 14:21:08,1427506
2025-09-11 14:21:08,1427414
2025-09-11 14:21:08,1427328
2025-09-11 14:21:08,1427277
2025-09-11 14:21:08,1427319
2025-09-11 14:21:08,1427331
2025-09-11 14:21:08,1427380
2025-09-11 14:21:08,1427428
2025-09-11 14:21:08,1427388
2025-09-11 14:21:08,1427388
2025-09-11 14:21:08,1427294
2025-09-11 14:21:08,1427353
2025-09-11 14:21:08,1427336
2025-09-11 14:21:08,1427312
2025-09-11 14:21:08,1427372
2025-09-11 14:21:08,1427355
2025-09-11 14:21:08,1427327
2025-09-11 14:21:08,1427237
2025-09-11 14:21:08,1427216
2025-09-11 14:21:08,1427100
2025-09-11 14:21:08,1427168
2025-09-11 14:21:08,1427257
2025-09-11 14:21:08,1427201
2025-09-11 14:21:08,1427257
2025-09-11 14:21:08,1427349
2025-09-11 14:21:08,1427204
2025-09-11 14:21:08,1427255
2025-09-11 14:21:08,1427254
2025-09-11 14:21:08,1427190
2025-09-11 14:21:08,1427249
2025-09-11 14:21:08,1427204
2025-09-11 14:21:08,1427245
2025-09-11 14:21:08,1427348
2025-09-11 14:21:08,1427362
2025-09-11 14:21:08,1427363
2025-09-11 14:21:08,1427460
2025-09-11 14:21:08,1427416
2025-09-11 14:21:08,1427514
2025-09-11 14:21:08,1427552
2025-09-11 14:21:08,1427523
2025-09-11 14:21:08,1427591
2025-09-11 14:21:08,1427634
2025-09-11 14:21:08,1427671
2025-09-11 14:21:09,1427890
2025-09-11 14:21:09,1427757
2025-09-11 14:21:09,1427905
2025-09-11 14:21:09,1427833
2025-09-11 14:21:09,1427884
2025-09-11 14:21:09,1428065
2025-09-11 14:21:09,1428050
2025-09-11 14:21:09,1428132
2025-09-11 14:21:09,1428208
2025-09-11 14:21:09,1428344
2025-09-11 14:21:09,1428417
2025-09-11 14:21:09,1428495
2025-09-11 14:21:09,1428340
2025-09-11 14:21:09,1428143
2025-09-11 14:21:09,1427830
2025-09-11 14:21:09,1427425
2025-09-11 14:21:09,1427040
2025-09-11 14:21:09,1426788
2025-09-11 14:21:09,1426527
2025-09-11 14:21:09,1426120
2025-09-11 14:21:09,1426022
2025-09-11 14:21:09,1425925
2025-09-11 14:21:09,1425774
2025-09-11 14:21:09,1425721
2025-09-11 14:21:09,1425720
2025-09-11 14:21:09,1425685
2025-09-11 14:21:09,1425681
2025-09-11 14:21:09,1425659
2025-09-11 14:21:09,1425656
2025-09-11 14:21:09,1425671
2025-09-11 14:21:09,1425582
2025-09-11 14:21:09,1425455
2025-09-11 14:21:09,1425448
2025-09-11 14:21:09,1425379
2025-09-11 14:21:09,1425259
2025-09-11 14:21:09,1425250
2025-09-11 14:21:09,1425249
2025-09-11 14:21:09,1425283
2025-09-11 14:21:09,1425150
2025-09-11 14:21:09,1425262
2025-09-11 14:21:09,1425407
2025-09-11 14:21:09,1425485
2025-09-11 14:21:09,1425481
2025-09-11 14:21:09,1425598
2025-09-11 14:21:09,1425750
2025-09-11 14:21:09,1425774
2025-09-11 14:21:09,1425852
2025-09-11 14:21:09,1425861
2025-09-11 14:21:09,1426050
2025-09-11 14:21:09,1425990
2025-09-11 14:21:09,1426061
2025-09-11 14:21:09,1426155
2025-09-11 14:21:09,1426097
2025-09-11 14:21:09,1426071
2025-09-11 14:21:09,1425999
2025-09-11 14:21:09,1425993
2025-09-11 14:21:09,1425990
2025-09-11 14:21:09,1426037
2025-09-11 14:21:09,1425978
2025-09-11 14:21:09,1426090
2025-09-11 14:21:09,1426037
2025-09-11 14:21:09,1425942
2025-09-11 14:21:09,1425996
2025-09-11 14:21:09,1426000
2025-09-11 14:21:09,1426041
2025-09-11 14:21:09,1426130
2025-09-11 14:21:09,1426141
2025-09-11 14:21:09,1426227
2025-09-11 14:21:09,1426295
2025-09-11 14:21:09,1426348
2025-09-11 14:21:09,1426273
2025-09-11 14:21:09,1426351
2025-09-11 14:21:09,1426453
2025-09-11 14:21:09,1426467
2025-09-11 14:21:09,1426510
2025-09-11 14:21:09,1426652
2025-09-11 14:21:09,1426627
2025-09-11 14:21:09,1426642
2025-09-11 14:21:09,1426699
2025-09-11 14:21:09,1426689
2025-09-11 14:21:09,1426796
2025-09-11 14:21:09,1426938
2025-09-11 14:21:09,1426953
2025-09-11 14:21:09,1427033
2025-09-11 14:21:09,1427156
2025-09-11 14:21:09,1427007
2025-09-11 14:21:09,1426817
2025-09-11 14:21:09,1426566
2025-09-11 14:21:09,1426195
2025-09-11 14:21:09,1425656
2025-09-11 14:21:09,1425308
2025-09-11 14:21:09,1425080
2025-09-11 14:21:09,1424723
2025-09-11 14:21:09,1424596
2025-09-11 14:21:09,1424303
2025-09-11 14:21:09,1424160
2025-09-11 14:21:09,1424096
2025-09-11 14:21:09,1424122
2025-09-11 14:21:09,1424142
2025-09-11 14:21:09,1424072
2025-09-11 14:21:10,1424145
2025-09-11 14:21:10,1424117
2025-09-11 14:21:10,1424012
2025-09-11 14:21:10,1423932
2025-09-11 14:21:10,1423921
2025-09-11 14:21:10,1423825
2025-09-11 14:21:10,1423877
2025-09-11 14:21:10,1423783
2025-09-11 14:21:10,1423860
2025-09-11 14:21:10,1423773
2025-09-11 14:21:10,1423866
2025-09-11 14:21:10,1423873
2025-09-11 14:21:10,1423911
2025-09-11 14:21:10,1423933
2025-09-11 14:21:10,1424006
2025-09-11 14:21:10,1424059
2025-09-11 14:21:10,1424066
2025-09-11 14:21:10,1424171
2025-09-11 14:21:10,1424123
2025-09-11 14:21:10,1424085
2025-09-11 14:21:10,1424162
2025-09-11 14:21:10,1424099
2025-09-11 14:21:10,1424040
2025-09-11 14:21:10,1423914
2025-09-11 14:21:10,1423968
2025-09-11 14:21:10,1424027
2025-09-11 14:21:10,1423945
2025-09-11 14:21:10,1423951
2025-09-11 14:21:10,1423995
2025-09-11 14:21:10,1423968
2025-09-11 14:21:10,1423865
2025-09-11 14:21:10,1423878
2025-09-11 14:21:10,1423871
2025-09-11 14:21:10,1423857
2025-09-11 14:21:10,1423854
2025-09-11 14:21:10,1423918
2025-09-11 14:21:10,1423923
2025-09-11 14:21:10,1423925
2025-09-11 14:21:10,1423892
2025-09-11 14:21:10,1423888
2025-09-11 14:21:10,1423919
2025-09-11 14:21:10,1423986
2025-09-11 14:21:10,1424015
2025-09-11 14:21:10,1424159
2025-09-11 14:21:10,1424081
2025-09-11 14:21:10,1424109
2025-09-11 14:21:10,1424010
2025-09-11 14:21:10,1424065
2025-09-11 14:21:10,1424079
2025-09-11 14:21:10,1424111
2025-09-11 14:21:10,1424180
2025-09-11 14:21:10,1424214
2025-09-11 14:21:10,1424207
2025-09-11 14:21:10,1424341
2025-09-11 14:21:10,1424303
2025-09-11 14:21:10,1424404
2025-09-11 14:21:10,1424457
2025-09-11 14:21:10,1424503
2025-09-11 14:21:10,1424344
2025-09-11 14:21:10,1424087
2025-09-11 14:21:10,1423838
2025-09-11 14:21:10,1423357
2025-09-11 14:21:10,1423055
2025-09-11 14:21:10,1422788
2025-09-11 14:21:10,1422491
2025-09-11 14:21:10,1422319
2025-09-11 14:21:10,1422284
2025-09-11 14:21:10,1422235
2025-09-11 14:21:10,1422274
2025-09-11 14:21:10,1422247
2025-09-11 14:21:10,1422173
2025-09-11 14:21:10,1422107
2025-09-11 14:21:10,1422010
2025-09-11 14:21:10,1421856
2025-09-11 14:21:10,1421776
2025-09-11 14:21:10,1421758
2025-09-11 14:21:10,1421735
2025-09-11 14:21:10,1421670
2025-09-11 14:21:10,1421519
2025-09-11 14:21:10,1421396
2025-09-11 14:21:10,1421332
2025-09-11 14:21:10,1421278
2025-09-11 14:21:10,1421367
2025-09-11 14:21:10,1421345
2025-09-11 14:21:10,1421475
2025-09-11 14:21:10,1421532
2025-09-11 14:21:10,1421593
2025-09-11 14:21:10,1421579
2025-09-11 14:21:10,1421615
2025-09-11 14:21:10,1421551
2025-09-11 14:21:10,1421560
2025-09-11 14:21:10,1421514
2025-09-11 14:21:10,1421587
2025-09-11 14:21:10,1421627
2025-09-11 14:21:10,1421617
2025-09-11 14:21:10,1421587
2025-09-11 14:21:10,1421521
2025-09-11 14:21:10,1421549
2025-09-11 14:21:10,1421406
2025-09-11 14:21:10,1421374
2025-09-11 14:21:11,1421363
2025-09-11 14:21:11,1421426
2025-09-11 14:21:11,1421487
2025-09-11 14:21:11,1421570
2025-09-11 14:21:11,1421512
2025-09-11 14:21:11,1421619
2025-09-11 14:21:11,1421515
2025-09-11 14:21:11,1421525
2025-09-11 14:21:11,1421575
2025-09-11 14:21:11,1421719
2025-09-11 14:21:11,1421739
2025-09-11 14:21:11,1421766
2025-09-11 14:21:11,1421811
2025-09-11 14:21:11,1421934
2025-09-11 14:21:11,1422009
2025-09-11 14:21:11,1421950
2025-09-11 14:21:11,1422066
2025-09-11 14:21:11,1422033
2025-09-11 14:21:11,1422113
2025-09-11 14:21:11,1422167
2025-09-11 14:21:11,1422224
2025-09-11 14:21:11,1422390
2025-09-11 14:21:11,1422428
2025-09-11 14:21:11,1422545
2025-09-11 14:21:11,1422553
2025-09-11 14:21:11,1422607
2025-09-11 14:21:11,1422454
2025-09-11 14:21:11,1422205
2025-09-11 14:21:11,1421850
2025-09-11 14:21:11,1421471
2025-09-11 14:21:11,1421073
2025-09-11 14:21:11,1420712
2025-09-11 14:21:11,1420521
2025-09-11 14:21:11,1420284
2025-09-11 14:21:11,1420187
2025-09-11 14:21:11,1420067
2025-09-11 14:21:11,1419945
2025-09-11 14:21:11,1419926
2025-09-11 14:21:11,1419777
2025-09-11 14:21:11,1419884
2025-09-11 14:21:11,1419688
2025-09-11 14:21:11,1419614
2025-09-11 14:21:11,1419597
2025-09-11 14:21:11,1419629
2025-09-11 14:21:11,1419633
2025-09-11 14:21:11,1419600
2025-09-11 14:21:11,1419554
2025-09-11 14:21:11,1419402
2025-09-11 14:21:11,1419425
2025-09-11 14:21:11,1419417
2025-09-11 14:21:11,1419452
2025-09-11 14:21:11,1419587
2025-09-11 14:21:11,1419718
2025-09-11 14:21:11,1419700
2025-09-11 14:21:11,1419837
2025-09-11 14:21:11,1419872
2025-09-11 14:21:11,1419907
2025-09-11 14:21:11,1419975
2025-09-11 14:21:11,1419914
2025-09-11 14:21:11,1419959
2025-09-11 14:21:11,1419805
2025-09-11 14:21:11,1419791
2025-09-11 14:21:11,1419810
2025-09-11 14:21:11,1419786
2025-09-11 14:21:11,1419749
2025-09-11 14:21:11,1419696
2025-09-11 14:21:11,1419758
2025-09-11 14:21:11,1419757
2025-09-11 14:21:11,1419634
2025-09-11 14:21:11,1419628
2025-09-11 14:21:11,1419515
2025-09-11 14:21:11,1419483
2025-09-11 14:21:11,1419597
2025-09-11 14:21:11,1419569
2025-09-11 14:21:11,1419595
2025-09-11 14:21:11,1419681
2025-09-11 14:21:11,1419675
2025-09-11 14:21:11,1419734
2025-09-11 14:21:11,1419648
2025-09-11 14:21:11,1419601
2025-09-11 14:21:11,1419640
2025-09-11 14:21:11,1419697
2025-09-11 14:21:11,1419753
2025-09-11 14:21:11,1419911
2025-09-11 14:21:11,1419911
2025-09-11 14:21:11,1419978
2025-09-11 14:21:11,1420142
2025-09-11 14:21:11,1420085
2025-09-11 14:21:11,1420254
2025-09-11 14:21:11,1420295
2025-09-11 14:21:11,1420307
2025-09-11 14:21:11,1420484
2025-09-11 14:21:11,1420540
2025-09-11 14:21:11,1420659
2025-09-11 14:21:11,1420724
2025-09-11 14:21:11,1420439
2025-09-11 14:21:11,1420083
2025-09-11 14:21:11,1419643
2025-09-11 14:21:11,1419253
2025-09-11 14:21:11,1418866
2025-09-11 14:21:12,1418608
2025-09-11 14:21:12,1418398
2025-09-11 14:21:12,1418185
2025-09-11 14:21:12,1418082
2025-09-11 14:21:12,1418013
2025-09-11 14:21:12,1417907
2025-09-11 14:21:12,1417889
2025-09-11 14:21:12,1417844
2025-09-11 14:21:12,1417775
2025-09-11 14:21:12,1417724
2025-09-11 14:21:12,1417763
2025-09-11 14:21:12,1417619
2025-09-11 14:21:12,1417660
2025-09-11 14:21:12,1417670
2025-09-11 14:21:12,1417580
2025-09-11 14:21:12,1417442
2025-09-11 14:21:12,1417511
2025-09-11 14:21:12,1417361
2025-09-11 14:21:12,1417385
2025-09-11 14:21:12,1417435
2025-09-11 14:21:12,1417436
2025-09-11 14:21:12,1417604
2025-09-11 14:21:12,1417615
2025-09-11 14:21:12,1417652
2025-09-11 14:21:12,1417695
2025-09-11 14:21:12,1417646
2025-09-11 14:21:12,1417706
2025-09-11 14:21:12,1417699
2025-09-11 14:21:12,1417702
2025-09-11 14:21:12,1417716
2025-09-11 14:21:12,1417657
2025-09-11 14:21:12,1417589
2025-09-11 14:21:12,1417636
2025-09-11 14:21:12,1417426
2025-09-11 14:21:12,1417407
2025-09-11 14:21:12,1417486
2025-09-11 14:21:12,1417510
2025-09-11 14:21:12,1417585
2025-09-11 14:21:12,1417556
2025-09-11 14:21:12,1417614
2025-09-11 14:21:12,1417674
2025-09-11 14:21:12,1417613
2025-09-11 14:21:12,1417673
2025-09-11 14:21:12,1417736
2025-09-11 14:21:12,1417872
2025-09-11 14:21:12,1417919
2025-09-11 14:21:12,1417887
2025-09-11 14:21:12,1417972
2025-09-11 14:21:12,1418000
2025-09-11 14:21:12,1418002
2025-09-11 14:21:12,1418033
2025-09-11 14:21:12,1418099
2025-09-11 14:21:12,1418129
2025-09-11 14:21:12,1418059
2025-09-11 14:21:12,1418108
2025-09-11 14:21:12,1418077
2025-09-11 14:21:12,1418187
2025-09-11 14:21:12,1418273
2025-09-11 14:21:12,1418294
2025-09-11 14:21:12,1418431
2025-09-11 14:21:12,1418350
2025-09-11 14:21:12,1418446
2025-09-11 14:21:12,1418610
2025-09-11 14:21:12,1418655
2025-09-11 14:21:12,1418742
2025-09-11 14:21:12,1418877
2025-09-11 14:21:12,1418744
2025-09-11 14:21:12,1418503
2025-09-11 14:21:12,1418229
2025-09-11 14:21:12,1417877
2025-09-11 14:21:12,1417521
2025-09-11 14:21:12,1417221
2025-09-11 14:21:12,1417058
2025-09-11 14:21:12,1416903
2025-09-11 14:21:12,1416854
2025-09-11 14:21:12,1416938
2025-09-11 14:21:12,1416927
2025-09-11 14:21:12,1416897
2025-09-11 14:21:12,1416881
2025-09-11 14:21:12,1417026
2025-09-11 14:21:12,1416986
2025-09-11 14:21:12,1416976
2025-09-11 14:21:12,1417063
2025-09-11 14:21:12,1417104
2025-09-11 14:21:12,1416997
2025-09-11 14:21:12,1416983
2025-09-11 14:21:12,1416856
2025-09-11 14:21:12,1416763
2025-09-11 14:21:12,1416681
2025-09-11 14:21:12,1416622
2025-09-11 14:21:12,1416525
2025-09-11 14:21:12,1416395
2025-09-11 14:21:12,1416471
2025-09-11 14:21:12,1416499
2025-09-11 14:21:12,1416459
2025-09-11 14:21:12,1416426
2025-09-11 14:21:12,1416435
2025-09-11 14:21:12,1416488
2025-09-11 14:21:12,1416501
2025-09-11 14:21:12,1416491
2025-09-11 14:21:13,1416505
2025-09-11 14:21:13,1416473
2025-09-11 14:21:13,1416326
2025-09-11 14:21:13,1416336
2025-09-11 14:21:13,1416229
2025-09-11 14:21:13,1416174
2025-09-11 14:21:13,1416111
2025-09-11 14:21:13,1416111
2025-09-11 14:21:13,1416116
2025-09-11 14:21:13,1416022
2025-09-11 14:21:13,1415977
2025-09-11 14:21:13,1416030
2025-09-11 14:21:13,1416068
2025-09-11 14:21:13,1416127
2025-09-11 14:21:13,1416130
2025-09-11 14:21:13,1416070
2025-09-11 14:21:13,1416151
2025-09-11 14:21:13,1416174
2025-09-11 14:21:13,1416225
2025-09-11 14:21:13,1416223
2025-09-11 14:21:13,1416376
2025-09-11 14:21:13,1416428
2025-09-11 14:21:13,1416527
2025-09-11 14:21:13,1416509
2025-09-11 14:21:13,1416604
2025-09-11 14:21:13,1416584
2025-09-11 14:21:13,1416663
2025-09-11 14:21:13,1416744
2025-09-11 14:21:13,1416817
2025-09-11 14:21:13,1416822
2025-09-11 14:21:13,1416924
2025-09-11 14:21:13,1417037
2025-09-11 14:21:13,1417008
2025-09-11 14:21:13,1417104
2025-09-11 14:21:13,1417211
2025-09-11 14:21:13,1417177
2025-09-11 14:21:13,1417269
2025-09-11 14:21:13,1417442
2025-09-11 14:21:13,1417550
2025-09-11 14:21:13,1417659
2025-09-11 14:21:13,1417621
2025-09-11 14:21:13,1417670
2025-09-11 14:21:13,1417269
2025-09-11 14:21:13,1416894
2025-09-11 14:21:13,1416682
2025-09-11 14:21:13,1416364
2025-09-11 14:21:13,1416200
2025-09-11 14:21:13,1415949
2025-09-11 14:21:13,1415785
2025-09-11 14:21:13,1415659
2025-09-11 14:21:13,1415678
2025-09-11 14:21:13,1415706
2025-09-11 14:21:13,1415692
2025-09-11 14:21:13,1415692
2025-09-11 14:21:13,1415712
2025-09-11 14:21:13,1415683
2025-09-11 14:21:13,1415645
2025-09-11 14:21:13,1415606
2025-09-11 14:21:13,1415539
2025-09-11 14:21:13,1415341
2025-09-11 14:21:13,1415354
2025-09-11 14:21:13,1415345
2025-09-11 14:21:13,1415308
2025-09-11 14:21:13,1415154
2025-09-11 14:21:13,1415236
2025-09-11 14:21:13,1415167
2025-09-11 14:21:13,1415245
2025-09-11 14:21:13,1415202
2025-09-11 14:21:13,1415295
2025-09-11 14:21:13,1415426
2025-09-11 14:21:13,1415477
2025-09-11 14:21:13,1415433
2025-09-11 14:21:13,1415432
2025-09-11 14:21:13,1415421
2025-09-11 14:21:13,1415417
2025-09-11 14:21:13,1415379
2025-09-11 14:21:13,1415309
2025-09-11 14:21:13,1415283
2025-09-11 14:21:13,1415241
2025-09-11 14:21:13,1415224
2025-09-11 14:21:13,1415232
2025-09-11 14:21:13,1415240
2025-09-11 14:21:13,1415321
2025-09-11 14:21:13,1415247
2025-09-11 14:21:13,1415292
2025-09-11 14:21:13,1415288
2025-09-11 14:21:13,1415280
2025-09-11 14:21:13,1415363
2025-09-11 14:21:13,1415473
2025-09-11 14:21:13,1415474
2025-09-11 14:21:13,1415534
2025-09-11 14:21:13,1415539
2025-09-11 14:21:13,1415548
2025-09-11 14:21:13,1415501
2025-09-11 14:21:13,1415582
2025-09-11 14:21:13,1415752
2025-09-11 14:21:13,1415794
2025-09-11 14:21:13,1415783
2025-09-11 14:21:13,1415905
2025-09-11 14:21:14,1415999
2025-09-11 14:21:14,1416050
2025-09-11 14:21:14,1416038
2025-09-11 14:21:14,1416093
2025-09-11 14:21:14,1416098
2025-09-11 14:21:14,1416214
2025-09-11 14:21:14,1416342
2025-09-11 14:21:14,1416317
2025-09-11 14:21:14,1416489
2025-09-11 14:21:14,1416544
2025-09-11 14:21:14,1416667
2025-09-11 14:21:14,1416797
2025-09-11 14:21:14,1416880
2025-09-11 14:21:14,1416921
2025-09-11 14:21:14,1417005
2025-09-11 14:21:14,1417069
2025-09-11 14:21:14,1417125
2025-09-11 14:21:14,1417177
2025-09-11 14:21:14,1417001
2025-09-11 14:21:14,1416771
2025-09-11 14:21:14,1416408
2025-09-11 14:21:14,1416095
2025-09-11 14:21:14,1415715
2025-09-11 14:21:14,1415414
2025-09-11 14:21:14,1415278
2025-09-11 14:21:14,1415219
2025-09-11 14:21:14,1415161
2025-09-11 14:21:14,1415101
2025-09-11 14:21:14,1415095
2025-09-11 14:21:14,1415160
2025-09-11 14:21:14,1415153
2025-09-11 14:21:14,1415150
2025-09-11 14:21:14,1415206
2025-09-11 14:21:14,1415141
2025-09-11 14:21:14,1415135
2025-09-11 14:21:14,1415210
2025-09-11 14:21:14,1415131
2025-09-11 14:21:14,1415125
2025-09-11 14:21:14,1415137
2025-09-11 14:21:14,1415186
2025-09-11 14:21:14,1415133
2025-09-11 14:21:14,1415174
2025-09-11 14:21:14,1415217
2025-09-11 14:21:14,1415394
2025-09-11 14:21:14,1415378
2025-09-11 14:21:14,1415398
2025-09-11 14:21:14,1415500
2025-09-11 14:21:14,1415601
2025-09-11 14:21:14,1415540
2025-09-11 14:21:14,1415629
2025-09-11 14:21:14,1415628
2025-09-11 14:21:14,1415569
2025-09-11 14:21:14,1415546
2025-09-11 14:21:14,1415558
2025-09-11 14:21:14,1415572
2025-09-11 14:21:14,1415527
2025-09-11 14:21:14,1415495
2025-09-11 14:21:14,1415566
2025-09-11 14:21:14,1415580
2025-09-11 14:21:14,1415524
2025-09-11 14:21:14,1415545
2025-09-11 14:21:14,1415559
2025-09-11 14:21:14,1415626
2025-09-11 14:21:14,1415578
2025-09-11 14:21:14,1415708
2025-09-11 14:21:14,1415604
2025-09-11 14:21:14,1415582
2025-09-11 14:21:14,1415629
2025-09-11 14:21:14,1415586
2025-09-11 14:21:14,1415706
2025-09-11 14:21:14,1415774
2025-09-11 14:21:14,1415806
2025-09-11 14:21:14,1415849
2025-09-11 14:21:14,1415893
2025-09-11 14:21:14,1415974
2025-09-11 14:21:14,1416033
2025-09-11 14:21:14,1416030
2025-09-11 14:21:14,1416160
2025-09-11 14:21:14,1416184
2025-09-11 14:21:14,1416318
2025-09-11 14:21:14,1416406
2025-09-11 14:21:14,1416491
2025-09-11 14:21:14,1416697
2025-09-11 14:21:14,1416770
2025-09-11 14:21:14,1416918
2025-09-11 14:21:14,1417000
2025-09-11 14:21:14,1417110
2025-09-11 14:21:14,1417112
2025-09-11 14:21:14,1417258
2025-09-11 14:21:14,1417255
2025-09-11 14:21:14,1417195
2025-09-11 14:21:14,1416897
2025-09-11 14:21:14,1416561
2025-09-11 14:21:14,1416183
2025-09-11 14:21:14,1415852
2025-09-11 14:21:14,1415585
2025-09-11 14:21:14,1415413
2025-09-11 14:21:14,1415146
2025-09-11 14:21:14,1415092
2025-09-11 14:21:14,1415016
2025-09-11 14:21:15,1415100
2025-09-11 14:21:15,1415031
2025-09-11 14:21:15,1415121
2025-09-11 14:21:15,1415096
2025-09-11 14:21:15,1415051
2025-09-11 14:21:15,1415026
2025-09-11 14:21:15,1414891
2025-09-11 14:21:15,1414967
2025-09-11 14:21:15,1414963
2025-09-11 14:21:15,1414965
2025-09-11 14:21:15,1414942
2025-09-11 14:21:15,1414882
2025-09-11 14:21:15,1414801
2025-09-11 14:21:15,1414844
2025-09-11 14:21:15,1414687
2025-09-11 14:21:15,1414770
2025-09-11 14:21:15,1414838
2025-09-11 14:21:15,1414984
2025-09-11 14:21:15,1414940
2025-09-11 14:21:15,1414996
2025-09-11 14:21:15,1415022
2025-09-11 14:21:15,1414947
2025-09-11 14:21:15,1414877
2025-09-11 14:21:15,1414890
2025-09-11 14:21:15,1414833
2025-09-11 14:21:15,1414886
2025-09-11 14:21:15,1414843
2025-09-11 14:21:15,1414788
2025-09-11 14:21:15,1414804
2025-09-11 14:21:15,1414805
2025-09-11 14:21:15,1414797
2025-09-11 14:21:15,1414855
2025-09-11 14:21:15,1414868
2025-09-11 14:21:15,1414830
2025-09-11 14:21:15,1414913
2025-09-11 14:21:15,1414854
2025-09-11 14:21:15,1414846
2025-09-11 14:21:15,1414871
2025-09-11 14:21:15,1414966
2025-09-11 14:21:15,1414962
2025-09-11 14:21:15,1414880
2025-09-11 14:21:15,1414962
2025-09-11 14:21:15,1415066
2025-09-11 14:21:15,1415109
2025-09-11 14:21:15,1415175
2025-09-11 14:21:15,1415197
2025-09-11 14:21:15,1415180
2025-09-11 14:21:15,1415229
2025-09-11 14:21:15,1415261
2025-09-11 14:21:15,1415320
2025-09-11 14:21:15,1415398
2025-09-11 14:21:15,1415354
2025-09-11 14:21:15,1415444
2025-09-11 14:21:15,1415575
2025-09-11 14:21:15,1415571
2025-09-11 14:21:15,1415648
2025-09-11 14:21:15,1415776
2025-09-11 14:21:15,1415875
2025-09-11 14:21:15,1415970
2025-09-11 14:21:15,1416000
2025-09-11 14:21:15,1416129
2025-09-11 14:21:15,1416207
2025-09-11 14:21:15,1416259
2025-09-11 14:21:15,1416310
2025-09-11 14:21:15,1416324
2025-09-11 14:21:15,1416111
2025-09-11 14:21:15,1415771
2025-09-11 14:21:15,1415416
2025-09-11 14:21:15,1415082
2025-09-11 14:21:15,1414843
2025-09-11 14:21:15,1414532
2025-09-11 14:21:15,1414405
2025-09-11 14:21:15,1414333
2025-09-11 14:21:15,1414316
2025-09-11 14:21:15,1414383
2025-09-11 14:21:15,1414417
2025-09-11 14:21:15,1414415
2025-09-11 14:21:15,1414305
2025-09-11 14:21:15,1414362
2025-09-11 14:21:15,1414351
2025-09-11 14:21:15,1414340
2025-09-11 14:21:15,1414383
2025-09-11 14:21:15,1414323
2025-09-11 14:21:15,1414311
2025-09-11 14:21:15,1414278
2025-09-11 14:21:15,1414341
2025-09-11 14:21:15,1414331
2025-09-11 14:21:15,1414387
2025-09-11 14:21:15,1414389
2025-09-11 14:21:15,1414358
2025-09-11 14:21:15,1414342
2025-09-11 14:21:15,1414513
2025-09-11 14:21:15,1414495
2025-09-11 14:21:15,1414558
2025-09-11 14:21:15,1414625
2025-09-11 14:21:15,1414587
2025-09-11 14:21:15,1414607
2025-09-11 14:21:15,1414578
2025-09-11 14:21:15,1414464
2025-09-11 14:21:15,1414576
2025-09-11 14:21:16,1414492
2025-09-11 14:21:16,1414520
2025-09-11 14:21:16,1414517
2025-09-11 14:21:16,1414555
2025-09-11 14:21:16,1414594
2025-09-11 14:21:16,1414544
2025-09-11 14:21:16,1414589
2025-09-11 14:21:16,1414581
2025-09-11 14:21:16,1414603
2025-09-11 14:21:16,1414548
2025-09-11 14:21:16,1414597
2025-09-11 14:21:16,1414715
2025-09-11 14:21:16,1414648
2025-09-11 14:21:16,1414713
2025-09-11 14:21:16,1414750
2025-09-11 14:21:16,1414814
2025-09-11 14:21:16,1414768
2025-09-11 14:21:16,1414916
2025-09-11 14:21:16,1414947
2025-09-11 14:21:16,1415110
2025-09-11 14:21:16,1415114
2025-09-11 14:21:16,1415139
2025-09-11 14:21:16,1415185
2025-09-11 14:21:16,1415209
2025-09-11 14:21:16,1415252
2025-09-11 14:21:16,1415294
2025-09-11 14:21:16,1415405
2025-09-11 14:21:16,1415554
2025-09-11 14:21:16,1415609
2025-09-11 14:21:16,1415724
2025-09-11 14:21:16,1415798
2025-09-11 14:21:16,1415934
2025-09-11 14:21:16,1415983
2025-09-11 14:21:16,1416063
2025-09-11 14:21:16,1416150
2025-09-11 14:21:16,1416233
2025-09-11 14:21:16,1416292
2025-09-11 14:21:16,1416432
2025-09-11 14:21:16,1416385
2025-09-11 14:21:16,1416235
2025-09-11 14:21:16,1415889
2025-09-11 14:21:16,1415619
2025-09-11 14:21:16,1415175
2025-09-11 14:21:16,1414910
2025-09-11 14:21:16,1414815
2025-09-11 14:21:16,1414625
2025-09-11 14:21:16,1414604
2025-09-11 14:21:16,1414473
2025-09-11 14:21:16,1414424
2025-09-11 14:21:16,1414342
2025-09-11 14:21:16,1414426
2025-09-11 14:21:16,1414377
2025-09-11 14:21:16,1414375
2025-09-11 14:21:16,1414391
2025-09-11 14:21:16,1414355
2025-09-11 14:21:16,1414288
2025-09-11 14:21:16,1414202
2025-09-11 14:21:16,1414134
2025-09-11 14:21:16,1414115
2025-09-11 14:21:16,1414188
2025-09-11 14:21:16,1414091
2025-09-11 14:21:16,1414141
2025-09-11 14:21:16,1414197
2025-09-11 14:21:16,1414229
2025-09-11 14:21:16,1414214
2025-09-11 14:21:16,1414418
2025-09-11 14:21:16,1414518
2025-09-11 14:21:16,1414684
2025-09-11 14:21:16,1414596
2025-09-11 14:21:16,1414680
2025-09-11 14:21:16,1414661
2025-09-11 14:21:16,1414703
2025-09-11 14:21:16,1414705
2025-09-11 14:21:16,1414847
2025-09-11 14:21:16,1414774
2025-09-11 14:21:16,1414703
2025-09-11 14:21:16,1414779
2025-09-11 14:21:16,1414808
2025-09-11 14:21:16,1414858
2025-09-11 14:21:16,1414840
2025-09-11 14:21:16,1414881
2025-09-11 14:21:16,1414950
2025-09-11 14:21:16,1414858
2025-09-11 14:21:16,1414900
2025-09-11 14:21:16,1414933
2025-09-11 14:21:16,1414987
2025-09-11 14:21:16,1414967
2025-09-11 14:21:16,1415094
2025-09-11 14:21:16,1415170
2025-09-11 14:21:16,1415203
2025-09-11 14:21:16,1415290
2025-09-11 14:21:16,1415281
2025-09-11 14:21:16,1415364
2025-09-11 14:21:16,1415333
2025-09-11 14:21:16,1415416
2025-09-11 14:21:16,1415431
2025-09-11 14:21:16,1415558
2025-09-11 14:21:16,1415661
2025-09-11 14:21:16,1415680
2025-09-11 14:21:16,1415727
2025-09-11 14:21:17,1415838
2025-09-11 14:21:17,1415954
2025-09-11 14:21:17,1416036
2025-09-11 14:21:17,1416046
2025-09-11 14:21:17,1416228
2025-09-11 14:21:17,1416356
2025-09-11 14:21:17,1416468
2025-09-11 14:21:17,1416542
2025-09-11 14:21:17,1416657
2025-09-11 14:21:17,1416621
2025-09-11 14:21:17,1416550
2025-09-11 14:21:17,1416185
2025-09-11 14:21:17,1415946
2025-09-11 14:21:17,1415594
2025-09-11 14:21:17,1415332
2025-09-11 14:21:17,1415220
2025-09-11 14:21:17,1415021
2025-09-11 14:21:17,1414892
2025-09-11 14:21:17,1414863
2025-09-11 14:21:17,1414904
2025-09-11 14:21:17,1414908
2025-09-11 14:21:17,1415017
2025-09-11 14:21:17,1415008
2025-09-11 14:21:17,1415029
2025-09-11 14:21:17,1415059
2025-09-11 14:21:17,1415041
2025-09-11 14:21:17,1414988
2025-09-11 14:21:17,1415119
2025-09-11 14:21:17,1415201
2025-09-11 14:21:17,1415142
2025-09-11 14:21:17,1415135
2025-09-11 14:21:17,1415168
2025-09-11 14:21:17,1415135
2025-09-11 14:21:17,1415190
2025-09-11 14:21:17,1415259
2025-09-11 14:21:17,1415463
2025-09-11 14:21:17,1415380
2025-09-11 14:21:17,1415484
2025-09-11 14:21:17,1415595
2025-09-11 14:21:17,1415640
2025-09-11 14:21:17,1415632
2025-09-11 14:21:17,1415570
2025-09-11 14:21:17,1415592
2025-09-11 14:21:17,1415591
2025-09-11 14:21:17,1415549
2025-09-11 14:21:17,1415605
2025-09-11 14:21:17,1415560
2025-09-11 14:21:17,1415550
2025-09-11 14:21:17,1415608
2025-09-11 14:21:17,1415528
2025-09-11 14:21:17,1415670
2025-09-11 14:21:17,1415633
2025-09-11 14:21:17,1415607
2025-09-11 14:21:17,1415706
2025-09-11 14:21:17,1415755
2025-09-11 14:21:17,1415808
2025-09-11 14:21:17,1415932
2025-09-11 14:21:17,1416045
2025-09-11 14:21:17,1416037
2025-09-11 14:21:17,1416059
2025-09-11 14:21:17,1416221
2025-09-11 14:21:17,1416191
2025-09-11 14:21:17,1416275
2025-09-11 14:21:17,1416296
2025-09-11 14:21:17,1416457
2025-09-11 14:21:17,1416447
2025-09-11 14:21:17,1416561
2025-09-11 14:21:17,1416616
2025-09-11 14:21:17,1416658
2025-09-11 14:21:17,1416698
2025-09-11 14:21:17,1416789
2025-09-11 14:21:17,1416814
2025-09-11 14:21:17,1416910
2025-09-11 14:21:17,1417058
2025-09-11 14:21:17,1417116
2025-09-11 14:21:17,1417287
2025-09-11 14:21:17,1417493
2025-09-11 14:21:17,1417419
2025-09-11 14:21:17,1417446
2025-09-11 14:21:17,1417305
2025-09-11 14:21:17,1416941
2025-09-11 14:21:17,1416581
2025-09-11 14:21:17,1416253
2025-09-11 14:21:17,1416018
2025-09-11 14:21:17,1415818
2025-09-11 14:21:17,1415621
2025-09-11 14:21:17,1415492
2025-09-11 14:21:17,1415457
2025-09-11 14:21:17,1415583
2025-09-11 14:21:17,1415611
2025-09-11 14:21:17,1415627
2025-09-11 14:21:17,1415675
2025-09-11 14:21:17,1415583
2025-09-11 14:21:17,1415664
2025-09-11 14:21:17,1415618
2025-09-11 14:21:17,1415732
2025-09-11 14:21:17,1415738
2025-09-11 14:21:17,1415747
2025-09-11 14:21:17,1415713
2025-09-11 14:21:17,1415645
2025-09-11 14:21:18,1415713
2025-09-11 14:21:18,1415627
2025-09-11 14:21:18,1415768
2025-09-11 14:21:18,1415813
2025-09-11 14:21:18,1415855
2025-09-11 14:21:18,1415940
2025-09-11 14:21:18,1415981
2025-09-11 14:21:18,1416082
2025-09-11 14:21:18,1416015
2025-09-11 14:21:18,1416133
2025-09-11 14:21:18,1416075
2025-09-11 14:21:18,1416130
2025-09-11 14:21:18,1416017
2025-09-11 14:21:18,1416016
2025-09-11 14:21:18,1416004
2025-09-11 14:21:18,1416040
2025-09-11 14:21:18,1416004
2025-09-11 14:21:18,1416003
2025-09-11 14:21:18,1415871
2025-09-11 14:21:18,1415950
2025-09-11 14:21:18,1415947
2025-09-11 14:21:18,1415901
2025-09-11 14:21:18,1415879
2025-09-11 14:21:18,1415828
2025-09-11 14:21:18,1415935
2025-09-11 14:21:18,1416041
2025-09-11 14:21:18,1415995
2025-09-11 14:21:18,1415903
2025-09-11 14:21:18,1416035
2025-09-11 14:21:18,1416021
2025-09-11 14:21:18,1416059
2025-09-11 14:21:18,1416116
2025-09-11 14:21:18,1416104
2025-09-11 14:21:18,1416166
2025-09-11 14:21:18,1416181
2025-09-11 14:21:18,1416177
2025-09-11 14:21:18,1416179
2025-09-11 14:21:18,1416228
2025-09-11 14:21:18,1416308
2025-09-11 14:21:18,1416265
2025-09-11 14:21:18,1416320
2025-09-11 14:21:18,1416425
2025-09-11 14:21:18,1416512
2025-09-11 14:21:18,1416672
2025-09-11 14:21:18,1416764
2025-09-11 14:21:18,1416877
2025-09-11 14:21:18,1416894
2025-09-11 14:21:18,1416892
2025-09-11 14:21:18,1417031
2025-09-11 14:21:18,1416982
2025-09-11 14:21:18,1416728
2025-09-11 14:21:18,1416480
2025-09-11 14:21:18,1415983
2025-09-11 14:21:18,1415724
2025-09-11 14:21:18,1415455
2025-09-11 14:21:18,1415206
2025-09-11 14:21:18,1415083
2025-09-11 14:21:18,1415010
2025-09-11 14:21:18,1414906
2025-09-11 14:21:18,1414859
2025-09-11 14:21:18,1414933
2025-09-11 14:21:18,1414974
2025-09-11 14:21:18,1414978
2025-09-11 14:21:18,1414988
2025-09-11 14:21:18,1414961
2025-09-11 14:21:18,1414999
2025-09-11 14:21:18,1414978
2025-09-11 14:21:18,1414935
2025-09-11 14:21:18,1414862
2025-09-11 14:21:18,1414868
2025-09-11 14:21:18,1414821
2025-09-11 14:21:18,1414870
2025-09-11 14:21:18,1414875
2025-09-11 14:21:18,1414936
2025-09-11 14:21:18,1414915
2025-09-11 14:21:18,1414905
2025-09-11 14:21:18,1414994
2025-09-11 14:21:18,1415000
2025-09-11 14:21:18,1414914
2025-09-11 14:21:18,1414948
2025-09-11 14:21:18,1414953
2025-09-11 14:21:18,1415014
2025-09-11 14:21:18,1414894
2025-09-11 14:21:18,1414923
2025-09-11 14:21:18,1414893
2025-09-11 14:21:18,1414823
2025-09-11 14:21:18,1414746
2025-09-11 14:21:18,1414672
2025-09-11 14:21:18,1414729
2025-09-11 14:21:18,1414730
2025-09-11 14:21:18,1414650
2025-09-11 14:21:18,1414690
2025-09-11 14:21:18,1414617
2025-09-11 14:21:18,1414631
2025-09-11 14:21:18,1414625
2025-09-11 14:21:18,1414667
2025-09-11 14:21:18,1414648
2025-09-11 14:21:18,1414612
2025-09-11 14:21:18,1414590
2025-09-11 14:21:18,1414559
2025-09-11 14:21:19,1414620
2025-09-11 14:21:19,1414715
2025-09-11 14:21:19,1414693
2025-09-11 14:21:19,1414761
2025-09-11 14:21:19,1414843
2025-09-11 14:21:19,1414848
2025-09-11 14:21:19,1414920
2025-09-11 14:21:19,1414971
2025-09-11 14:21:19,1414947
2025-09-11 14:21:19,1415060
2025-09-11 14:21:19,1415069
2025-09-11 14:21:19,1415167
2025-09-11 14:21:19,1415202
2025-09-11 14:21:19,1415315
2025-09-11 14:21:19,1415372
2025-09-11 14:21:19,1415387
2025-09-11 14:21:19,1415550
2025-09-11 14:21:19,1415602
2025-09-11 14:21:19,1415703
2025-09-11 14:21:19,1415790
2025-09-11 14:21:19,1415848
2025-09-11 14:21:19,1415995
2025-09-11 14:21:19,1416083
2025-09-11 14:21:19,1416130
2025-09-11 14:21:19,1416083
2025-09-11 14:21:19,1415853
2025-09-11 14:21:19,1415470
2025-09-11 14:21:19,1415133
2025-09-11 14:21:19,1414734
2025-09-11 14:21:19,1414498
2025-09-11 14:21:19,1414241
2025-09-11 14:21:19,1414058
2025-09-11 14:21:19,1413931
2025-09-11 14:21:19,1413944
2025-09-11 14:21:19,1413882
2025-09-11 14:21:19,1413945
2025-09-11 14:21:19,1413999
2025-09-11 14:21:19,1414014
2025-09-11 14:21:19,1414015
2025-09-11 14:21:19,1413903
2025-09-11 14:21:19,1413921
2025-09-11 14:21:19,1413942
2025-09-11 14:21:19,1413954
2025-09-11 14:21:19,1413858
2025-09-11 14:21:19,1413807
2025-09-11 14:21:19,1413867
2025-09-11 14:21:19,1413750
2025-09-11 14:21:19,1413757
2025-09-11 14:21:19,1413779
2025-09-11 14:21:19,1413797
2025-09-11 14:21:19,1413871
2025-09-11 14:21:19,1413939
2025-09-11 14:21:19,1413929
2025-09-11 14:21:19,1413897
2025-09-11 14:21:19,1413933
2025-09-11 14:21:19,1413901
2025-09-11 14:21:19,1413849
2025-09-11 14:21:19,1413880
2025-09-11 14:21:19,1413869
2025-09-11 14:21:19,1413813
2025-09-11 14:21:19,1413784
2025-09-11 14:21:19,1413770
2025-09-11 14:21:19,1413763
2025-09-11 14:21:19,1413738
2025-09-11 14:21:19,1413715
2025-09-11 14:21:19,1413780
2025-09-11 14:21:19,1413675
2025-09-11 14:21:19,1413770
2025-09-11 14:21:19,1413671
2025-09-11 14:21:19,1413733
2025-09-11 14:21:19,1413674
2025-09-11 14:21:19,1413708
2025-09-11 14:21:19,1413738
2025-09-11 14:21:19,1413737
2025-09-11 14:21:19,1413782
2025-09-11 14:21:19,1413740
2025-09-11 14:21:19,1413793
2025-09-11 14:21:19,1413863
2025-09-11 14:21:19,1413902
2025-09-11 14:21:19,1413985
2025-09-11 14:21:19,1414095
2025-09-11 14:21:19,1414068
2025-09-11 14:21:19,1414212
2025-09-11 14:21:19,1414205
2025-09-11 14:21:19,1414353
2025-09-11 14:21:19,1414391
2025-09-11 14:21:19,1414419
2025-09-11 14:21:19,1414493
2025-09-11 14:21:19,1414474
2025-09-11 14:21:19,1414556
2025-09-11 14:21:19,1414633
2025-09-11 14:21:19,1414721
2025-09-11 14:21:19,1414938
2025-09-11 14:21:19,1415042
2025-09-11 14:21:19,1415120
2025-09-11 14:21:19,1415134
2025-09-11 14:21:19,1415209
2025-09-11 14:21:19,1415348
2025-09-11 14:21:19,1415295
2025-09-11 14:21:19,1415371
2025-09-11 14:21:20,1415239
2025-09-11 14:21:20,1414876
2025-09-11 14:21:20,1414454
2025-09-11 14:21:20,1414128
2025-09-11 14:21:20,1413831
2025-09-11 14:21:20,1413558
2025-09-11 14:21:20,1413371
2025-09-11 14:21:20,1413218
2025-09-11 14:21:20,1413164
2025-09-11 14:21:20,1413151
2025-09-11 14:21:20,1413125
2025-09-11 14:21:20,1413213
2025-09-11 14:21:20,1413248
2025-09-11 14:21:20,1413228
2025-09-11 14:21:20,1413265
2025-09-11 14:21:20,1413279
2025-09-11 14:21:20,1413336
2025-09-11 14:21:20,1413239
2025-09-11 14:21:20,1413350
2025-09-11 14:21:20,1413307
2025-09-11 14:21:20,1413354
2025-09-11 14:21:20,1413419
2025-09-11 14:21:20,1413473
2025-09-11 14:21:20,1413493
2025-09-11 14:21:20,1413511
2025-09-11 14:21:20,1413602
2025-09-11 14:21:20,1413736
2025-09-11 14:21:20,1413744
2025-09-11 14:21:20,1413836
2025-09-11 14:21:20,1413903
2025-09-11 14:21:20,1413856
2025-09-11 14:21:20,1413989
2025-09-11 14:21:20,1413887
2025-09-11 14:21:20,1413944
2025-09-11 14:21:20,1414036
2025-09-11 14:21:20,1414015
2025-09-11 14:21:20,1414015
2025-09-11 14:21:20,1414065
2025-09-11 14:21:20,1414079
2025-09-11 14:21:20,1414196
2025-09-11 14:21:20,1414117
2025-09-11 14:21:20,1414178
2025-09-11 14:21:20,1414193
2025-09-11 14:21:20,1414278
2025-09-11 14:21:20,1414322
2025-09-11 14:21:20,1414290
2025-09-11 14:21:20,1414356
2025-09-11 14:21:20,1414382
2025-09-11 14:21:20,1414516
2025-09-11 14:21:20,1414499
2025-09-11 14:21:20,1414506
2025-09-11 14:21:20,1414608
2025-09-11 14:21:20,1414598
2025-09-11 14:21:20,1414690
2025-09-11 14:21:20,1414732
2025-09-11 14:21:20,1414833
2025-09-11 14:21:20,1414900
2025-09-11 14:21:20,1415068
2025-09-11 14:21:20,1415062
2025-09-11 14:21:20,1415173
2025-09-11 14:21:20,1415184
2025-09-11 14:21:20,1415352
2025-09-11 14:21:20,1415380
2025-09-11 14:21:20,1415396
2025-09-11 14:21:20,1415566
2025-09-11 14:21:20,1415685
2025-09-11 14:21:20,1415843
2025-09-11 14:21:20,1415946
2025-09-11 14:21:20,1416015
2025-09-11 14:21:20,1416118
2025-09-11 14:21:20,1416281
2025-09-11 14:21:20,1416373
2025-09-11 14:21:20,1416397
2025-09-11 14:21:20,1416461
2025-09-11 14:21:20,1416543
2025-09-11 14:21:20,1416475
2025-09-11 14:21:20,1416253
2025-09-11 14:21:20,1415908
2025-09-11 14:21:20,1415445
2025-09-11 14:21:20,1415060
2025-09-11 14:21:20,1414773
2025-09-11 14:21:20,1414544
2025-09-11 14:21:20,1414484
2025-09-11 14:21:20,1414305
2025-09-11 14:21:20,1414278
2025-09-11 14:21:20,1414271
2025-09-11 14:21:20,1414297
2025-09-11 14:21:20,1414358
2025-09-11 14:21:20,1414377
2025-09-11 14:21:20,1414382
2025-09-11 14:21:20,1414407
2025-09-11 14:21:20,1414341
2025-09-11 14:21:20,1414438
2025-09-11 14:21:20,1414442
2025-09-11 14:21:20,1414471
2025-09-11 14:21:20,1414496
2025-09-11 14:21:20,1414463
2025-09-11 14:21:20,1414570
2025-09-11 14:21:20,1414556
2025-09-11 14:21:20,1414559
2025-09-11 14:21:21,1414672
2025-09-11 14:21:21,1414719
2025-09-11 14:21:21,1414805
2025-09-11 14:21:21,1414908
2025-09-11 14:21:21,1414898
2025-09-11 14:21:21,1414949
2025-09-11 14:21:21,1414889
2025-09-11 14:21:21,1415050
2025-09-11 14:21:21,1414995
2025-09-11 14:21:21,1415004
2025-09-11 14:21:21,1415005
2025-09-11 14:21:21,1414996
2025-09-11 14:21:21,1414939
2025-09-11 14:21:21,1415048
2025-09-11 14:21:21,1415036
2025-09-11 14:21:21,1415065
2025-09-11 14:21:21,1415035
2025-09-11 14:21:21,1415025
2025-09-11 14:21:21,1415011
2025-09-11 14:21:21,1414905
2025-09-11 14:21:21,1415062
2025-09-11 14:21:21,1415117
2025-09-11 14:21:21,1415162
2025-09-11 14:21:21,1415092
2025-09-11 14:21:21,1415200
2025-09-11 14:21:21,1415227
2025-09-11 14:21:21,1415208
2025-09-11 14:21:21,1415276
2025-09-11 14:21:21,1415327
2025-09-11 14:21:21,1415419
2025-09-11 14:21:21,1415372
2025-09-11 14:21:21,1415396
2025-09-11 14:21:21,1415494
2025-09-11 14:21:21,1415620
2025-09-11 14:21:21,1415607
2025-09-11 14:21:21,1415736
2025-09-11 14:21:21,1415799
2025-09-11 14:21:21,1415815
2025-09-11 14:21:21,1415946
2025-09-11 14:21:21,1415995
2025-09-11 14:21:21,1416083
2025-09-11 14:21:21,1416270
2025-09-11 14:21:21,1416390
2025-09-11 14:21:21,1416324
2025-09-11 14:21:21,1416204
2025-09-11 14:21:21,1415947
2025-09-11 14:21:21,1415445
2025-09-11 14:21:21,1415110
2025-09-11 14:21:21,1414776
2025-09-11 14:21:21,1414517
2025-09-11 14:21:21,1414388
2025-09-11 14:21:21,1414245
2025-09-11 14:21:21,1414202
2025-09-11 14:21:21,1414148
2025-09-11 14:21:21,1414104
2025-09-11 14:21:21,1414156
2025-09-11 14:21:21,1414132
2025-09-11 14:21:21,1414128
2025-09-11 14:21:21,1414055
2025-09-11 14:21:21,1414137
2025-09-11 14:21:21,1414056
2025-09-11 14:21:21,1414120
2025-09-11 14:21:21,1414147
2025-09-11 14:21:21,1414250
2025-09-11 14:21:21,1414236
2025-09-11 14:21:21,1414188
2025-09-11 14:21:21,1414211
2025-09-11 14:21:21,1414262
2025-09-11 14:21:21,1414327
2025-09-11 14:21:21,1414468
2025-09-11 14:21:21,1414546
2025-09-11 14:21:21,1414754
2025-09-11 14:21:21,1414652
2025-09-11 14:21:21,1414790
2025-09-11 14:21:21,1414756
2025-09-11 14:21:21,1414794
2025-09-11 14:21:21,1414790
2025-09-11 14:21:21,1414785
2025-09-11 14:21:21,1414765
2025-09-11 14:21:21,1414695
2025-09-11 14:21:21,1414716
2025-09-11 14:21:21,1414680
2025-09-11 14:21:21,1414635
2025-09-11 14:21:21,1414610
2025-09-11 14:21:21,1414666
2025-09-11 14:21:21,1414686
2025-09-11 14:21:21,1414618
2025-09-11 14:21:21,1414585
2025-09-11 14:21:21,1414731
2025-09-11 14:21:21,1414768
2025-09-11 14:21:21,1414838
2025-09-11 14:21:21,1414777
2025-09-11 14:21:21,1414943
2025-09-11 14:21:21,1414895
2025-09-11 14:21:21,1414942
2025-09-11 14:21:21,1414987
2025-09-11 14:21:21,1415050
2025-09-11 14:21:21,1415003
2025-09-11 14:21:21,1415065
2025-09-11 14:21:21,1415051
2025-09-11 14:21:22,1415218
2025-09-11 14:21:22,1415253
2025-09-11 14:21:22,1415279
2025-09-11 14:21:22,1415400
2025-09-11 14:21:22,1415472
2025-09-11 14:21:22,1415495
2025-09-11 14:21:22,1415686
2025-09-11 14:21:22,1415702
2025-09-11 14:21:22,1415797
2025-09-11 14:21:22,1415827
2025-09-11 14:21:22,1415766
2025-09-11 14:21:22,1415502
2025-09-11 14:21:22,1415159
2025-09-11 14:21:22,1414731
2025-09-11 14:21:22,1414407
2025-09-11 14:21:22,1414028
2025-09-11 14:21:22,1413769
2025-09-11 14:21:22,1413581
2025-09-11 14:21:22,1413427
2025-09-11 14:21:22,1413349
2025-09-11 14:21:22,1413306
2025-09-11 14:21:22,1413276
2025-09-11 14:21:22,1413265
2025-09-11 14:21:22,1413195
2025-09-11 14:21:22,1413181
2025-09-11 14:21:22,1413276
2025-09-11 14:21:22,1413179
2025-09-11 14:21:22,1413111
2025-09-11 14:21:22,1413109
2025-09-11 14:21:22,1413199
2025-09-11 14:21:22,1413155
2025-09-11 14:21:22,1413176
2025-09-11 14:21:22,1413010
2025-09-11 14:21:22,1413057
2025-09-11 14:21:22,1413103
2025-09-11 14:21:22,1413082
2025-09-11 14:21:22,1413168
2025-09-11 14:21:22,1413213
2025-09-11 14:21:22,1413252
2025-09-11 14:21:22,1413305
2025-09-11 14:21:22,1413274
2025-09-11 14:21:22,1413267
2025-09-11 14:21:22,1413264
2025-09-11 14:21:22,1413166
2025-09-11 14:21:22,1413240
2025-09-11 14:21:22,1413182
2025-09-11 14:21:22,1413229
2025-09-11 14:21:22,1413115
2025-09-11 14:21:22,1413090
2025-09-11 14:21:22,1413077
2025-09-11 14:21:22,1413125
2025-09-11 14:21:22,1413139
2025-09-11 14:21:22,1413160
2025-09-11 14:21:22,1413114
2025-09-11 14:21:22,1413122
2025-09-11 14:21:22,1413083
2025-09-11 14:21:22,1413172
2025-09-11 14:21:22,1413046
2025-09-11 14:21:22,1413149
2025-09-11 14:21:22,1413181
2025-09-11 14:21:22,1413202
2025-09-11 14:21:22,1413343
2025-09-11 14:21:22,1413306
2025-09-11 14:21:22,1413282
2025-09-11 14:21:22,1413454
2025-09-11 14:21:22,1413402
2025-09-11 14:21:22,1413392
2025-09-11 14:21:22,1413439
2025-09-11 14:21:22,1413652
2025-09-11 14:21:22,1413679
2025-09-11 14:21:22,1413685
2025-09-11 14:21:22,1413772
2025-09-11 14:21:22,1413881
2025-09-11 14:21:22,1413931
2025-09-11 14:21:22,1413971
2025-09-11 14:21:22,1414084
2025-09-11 14:21:22,1413917
2025-09-11 14:21:22,1413671
2025-09-11 14:21:22,1413317
2025-09-11 14:21:22,1412981
2025-09-11 14:21:22,1412634
2025-09-11 14:21:22,1412376
2025-09-11 14:21:22,1412107
2025-09-11 14:21:22,1412068
2025-09-11 14:21:22,1411953
2025-09-11 14:21:22,1411977
2025-09-11 14:21:22,1412040
2025-09-11 14:21:22,1412086
2025-09-11 14:21:22,1412119
2025-09-11 14:21:22,1412145
2025-09-11 14:21:22,1412138
2025-09-11 14:21:22,1412111
2025-09-11 14:21:22,1412131
2025-09-11 14:21:22,1412041
2025-09-11 14:21:22,1412142
2025-09-11 14:21:22,1412186
2025-09-11 14:21:22,1412216
2025-09-11 14:21:22,1412153
2025-09-11 14:21:22,1412151
2025-09-11 14:21:23,1412252
2025-09-11 14:21:23,1412270
2025-09-11 14:21:23,1412348
2025-09-11 14:21:23,1412426
2025-09-11 14:21:23,1412596
2025-09-11 14:21:23,1412645
2025-09-11 14:21:23,1412741
2025-09-11 14:21:23,1412695
2025-09-11 14:21:23,1412746
2025-09-11 14:21:23,1412623
2025-09-11 14:21:23,1412751
2025-09-11 14:21:23,1412708
2025-09-11 14:21:23,1412713
2025-09-11 14:21:23,1412787
2025-09-11 14:21:23,1412756
2025-09-11 14:21:23,1412662
2025-09-11 14:21:23,1412637
2025-09-11 14:21:23,1412660
2025-09-11 14:21:23,1412691
2025-09-11 14:21:23,1412743
2025-09-11 14:21:23,1412662
2025-09-11 14:21:23,1412769
2025-09-11 14:21:23,1412743
2025-09-11 14:21:23,1412753
2025-09-11 14:21:23,1412746
2025-09-11 14:21:23,1412616
2025-09-11 14:21:23,1412620
2025-09-11 14:21:23,1412576
2025-09-11 14:21:23,1412554
2025-09-11 14:21:23,1412678
2025-09-11 14:21:23,1412692
2025-09-11 14:21:23,1412667
2025-09-11 14:21:23,1412655
2025-09-11 14:21:23,1412575
2025-09-11 14:21:23,1412590
2025-09-11 14:21:23,1412489
2025-09-11 14:21:23,1412474
2025-09-11 14:21:23,1412524
2025-09-11 14:21:23,1412540
2025-09-11 14:21:23,1412478
2025-09-11 14:21:23,1412577
2025-09-11 14:21:23,1412625
2025-09-11 14:21:23,1412556
2025-09-11 14:21:23,1412459
2025-09-11 14:21:23,1412489
2025-09-11 14:21:23,1412596
2025-09-11 14:21:23,1412648
2025-09-11 14:21:23,1412679
2025-09-11 14:21:23,1412809
2025-09-11 14:21:23,1412933
2025-09-11 14:21:23,1412817
2025-09-11 14:21:23,1412538
2025-09-11 14:21:23,1412106
2025-09-11 14:21:23,1411745
2025-09-11 14:21:23,1411195
2025-09-11 14:21:23,1410944
2025-09-11 14:21:23,1410760
2025-09-11 14:21:23,1410473
2025-09-11 14:21:23,1410277
2025-09-11 14:21:23,1410148
2025-09-11 14:21:23,1409989
2025-09-11 14:21:23,1409933
2025-09-11 14:21:23,1409879
2025-09-11 14:21:23,1409810
2025-09-11 14:21:23,1409901
2025-09-11 14:21:23,1409868
2025-09-11 14:21:23,1409851
2025-09-11 14:21:23,1409816
2025-09-11 14:21:23,1409688
2025-09-11 14:21:23,1409560
2025-09-11 14:21:23,1409462
2025-09-11 14:21:23,1409341
2025-09-11 14:21:23,1409283
2025-09-11 14:21:23,1409142
2025-09-11 14:21:23,1409153
2025-09-11 14:21:23,1408965
2025-09-11 14:21:23,1409028
2025-09-11 14:21:23,1408936
2025-09-11 14:21:23,1409025
2025-09-11 14:21:23,1408981
2025-09-11 14:21:23,1408980
2025-09-11 14:21:23,1409019
2025-09-11 14:21:23,1409075
2025-09-11 14:21:23,1408975
2025-09-11 14:21:23,1408966
2025-09-11 14:21:23,1408978
2025-09-11 14:21:23,1408824
2025-09-11 14:21:23,1408742
2025-09-11 14:21:23,1408751
2025-09-11 14:21:23,1408785
2025-09-11 14:21:23,1408696
2025-09-11 14:21:23,1408634
2025-09-11 14:21:23,1408719
2025-09-11 14:21:23,1408693
2025-09-11 14:21:23,1408709
2025-09-11 14:21:23,1408742
2025-09-11 14:21:23,1408648
2025-09-11 14:21:23,1408627
2025-09-11 14:21:23,1408652
2025-09-11 14:21:23,1408746
2025-09-11 14:21:24,1408702
2025-09-11 14:21:24,1408678
2025-09-11 14:21:24,1408697
2025-09-11 14:21:24,1408755
2025-09-11 14:21:24,1408816
2025-09-11 14:21:24,1408770
2025-09-11 14:21:24,1408822
2025-09-11 14:21:24,1408895
2025-09-11 14:21:24,1408905
2025-09-11 14:21:24,1408895
2025-09-11 14:21:24,1408993
2025-09-11 14:21:24,1409017
2025-09-11 14:21:24,1409050
2025-09-11 14:21:24,1408970
2025-09-11 14:21:24,1408831
2025-09-11 14:21:24,1408545
2025-09-11 14:21:24,1408388
2025-09-11 14:21:24,1408257
2025-09-11 14:21:24,1407976
2025-09-11 14:21:24,1408020
2025-09-11 14:21:24,1407857
2025-09-11 14:21:24,1407789
2025-09-11 14:21:24,1407851
2025-09-11 14:21:24,1407829
2025-09-11 14:21:24,1407841
2025-09-11 14:21:24,1407936
2025-09-11 14:21:24,1407964
2025-09-11 14:21:24,1407924
2025-09-11 14:21:24,1407964
2025-09-11 14:21:24,1407884
2025-09-11 14:21:24,1407567
2025-09-11 14:21:24,1407176
2025-09-11 14:21:24,1406793
2025-09-11 14:21:24,1406357
2025-09-11 14:21:24,1406100
2025-09-11 14:21:24,1405800
2025-09-11 14:21:24,1405574
2025-09-11 14:21:24,1405344
2025-09-11 14:21:24,1405263
2025-09-11 14:21:24,1405193
2025-09-11 14:21:24,1405138
2025-09-11 14:21:24,1405138
2025-09-11 14:21:24,1405111
2025-09-11 14:21:24,1405092
2025-09-11 14:21:24,1404988
2025-09-11 14:21:24,1404854
2025-09-11 14:21:24,1404787
2025-09-11 14:21:24,1404684
2025-09-11 14:21:24,1404592
2025-09-11 14:21:24,1404591
2025-09-11 14:21:24,1404548
2025-09-11 14:21:24,1404552
2025-09-11 14:21:24,1404540
2025-09-11 14:21:24,1404446
2025-09-11 14:21:24,1404419
2025-09-11 14:21:24,1404470
2025-09-11 14:21:24,1404439
2025-09-11 14:21:24,1404542
2025-09-11 14:21:24,1404524
2025-09-11 14:21:24,1404616
2025-09-11 14:21:24,1404665
2025-09-11 14:21:24,1404584
2025-09-11 14:21:24,1404524
2025-09-11 14:21:24,1404544
2025-09-11 14:21:24,1404465
2025-09-11 14:21:24,1404462
2025-09-11 14:21:24,1404442
2025-09-11 14:21:24,1404495
2025-09-11 14:21:24,1404460
2025-09-11 14:21:24,1404479
2025-09-11 14:21:24,1404500
2025-09-11 14:21:24,1404462
2025-09-11 14:21:24,1404450
2025-09-11 14:21:24,1404583
2025-09-11 14:21:24,1404503
2025-09-11 14:21:24,1404526
2025-09-11 14:21:24,1404541
2025-09-11 14:21:24,1404513
2025-09-11 14:21:24,1404567
2025-09-11 14:21:24,1404577
2025-09-11 14:21:24,1404636
2025-09-11 14:21:24,1404640
2025-09-11 14:21:24,1404741
2025-09-11 14:21:24,1404749
2025-09-11 14:21:24,1404834
2025-09-11 14:21:24,1404836
2025-09-11 14:21:24,1404926
2025-09-11 14:21:24,1404976
2025-09-11 14:21:24,1404978
2025-09-11 14:21:24,1405007
2025-09-11 14:21:24,1405077
2025-09-11 14:21:24,1405083
2025-09-11 14:21:24,1405202
2025-09-11 14:21:24,1405243
2025-09-11 14:21:24,1405369
2025-09-11 14:21:24,1405447
2025-09-11 14:21:24,1405417
2025-09-11 14:21:24,1405517
2025-09-11 14:21:24,1405722
2025-09-11 14:21:24,1405816
2025-09-11 14:21:25,1405807
2025-09-11 14:21:25,1405993
2025-09-11 14:21:25,1406037
2025-09-11 14:21:25,1406143
2025-09-11 14:21:25,1406171
2025-09-11 14:21:25,1406282
2025-09-11 14:21:25,1406231
2025-09-11 14:21:25,1405919
2025-09-11 14:21:25,1405545
2025-09-11 14:21:25,1405169
2025-09-11 14:21:25,1404798
2025-09-11 14:21:25,1404467
2025-09-11 14:21:25,1404230
2025-09-11 14:21:25,1404102
2025-09-11 14:21:25,1404048
2025-09-11 14:21:25,1403866
2025-09-11 14:21:25,1403931
2025-09-11 14:21:25,1403868
2025-09-11 14:21:25,1403804
2025-09-11 14:21:25,1403840
2025-09-11 14:21:25,1403814
2025-09-11 14:21:25,1403856
2025-09-11 14:21:25,1403753
2025-09-11 14:21:25,1403705
2025-09-11 14:21:25,1403782
2025-09-11 14:21:25,1403746
2025-09-11 14:21:25,1403740
2025-09-11 14:21:25,1403716
2025-09-11 14:21:25,1403767
2025-09-11 14:21:25,1403761
2025-09-11 14:21:25,1403841
2025-09-11 14:21:25,1403912
2025-09-11 14:21:25,1404018
2025-09-11 14:21:25,1404036
2025-09-11 14:21:25,1404103
2025-09-11 14:21:25,1404147
2025-09-11 14:21:25,1404152
2025-09-11 14:21:25,1404157
2025-09-11 14:21:25,1404164
2025-09-11 14:21:25,1404188
2025-09-11 14:21:25,1404200
2025-09-11 14:21:25,1404089
2025-09-11 14:21:25,1404086
2025-09-11 14:21:25,1404178
2025-09-11 14:21:25,1404113
2025-09-11 14:21:25,1404114
2025-09-11 14:21:25,1404117
2025-09-11 14:21:25,1404062
2025-09-11 14:21:25,1404250
2025-09-11 14:21:25,1404223
2025-09-11 14:21:25,1404148
2025-09-11 14:21:25,1404241
2025-09-11 14:21:25,1404291
2025-09-11 14:21:25,1404267
2025-09-11 14:21:25,1404316
2025-09-11 14:21:25,1404363
2025-09-11 14:21:25,1404381
2025-09-11 14:21:25,1404497
2025-09-11 14:21:25,1404579
2025-09-11 14:21:25,1404605
2025-09-11 14:21:25,1404748
2025-09-11 14:21:25,1404708
2025-09-11 14:21:25,1404759
2025-09-11 14:21:25,1404819
2025-09-11 14:21:25,1404760
2025-09-11 14:21:25,1404905
2025-09-11 14:21:25,1405001
2025-09-11 14:21:25,1405028
2025-09-11 14:21:25,1405126
2025-09-11 14:21:25,1405275
2025-09-11 14:21:25,1405194
2025-09-11 14:21:25,1405405
2025-09-11 14:21:25,1405461
2025-09-11 14:21:25,1405513
2025-09-11 14:21:25,1405687
2025-09-11 14:21:25,1405714
2025-09-11 14:21:25,1405737
2025-09-11 14:21:25,1405654
2025-09-11 14:21:25,1405496
2025-09-11 14:21:25,1405122
2025-09-11 14:21:25,1404688
2025-09-11 14:21:25,1404235
2025-09-11 14:21:25,1404058
2025-09-11 14:21:25,1403678
2025-09-11 14:21:25,1403633
2025-09-11 14:21:25,1403489
2025-09-11 14:21:25,1403303
2025-09-11 14:21:25,1403286
2025-09-11 14:21:25,1403290
2025-09-11 14:21:25,1403301
2025-09-11 14:21:25,1403300
2025-09-11 14:21:25,1403256
2025-09-11 14:21:25,1403279
2025-09-11 14:21:25,1403117
2025-09-11 14:21:25,1403103
2025-09-11 14:21:25,1403032
2025-09-11 14:21:25,1403142
2025-09-11 14:21:25,1402992
2025-09-11 14:21:25,1402868
2025-09-11 14:21:25,1402951
2025-09-11 14:21:26,1402832
2025-09-11 14:21:26,1402957
2025-09-11 14:21:26,1403026
2025-09-11 14:21:26,1403044
2025-09-11 14:21:26,1403120
2025-09-11 14:21:26,1403138
2025-09-11 14:21:26,1403182
2025-09-11 14:21:26,1403252
2025-09-11 14:21:26,1403238
2025-09-11 14:21:26,1403259
2025-09-11 14:21:26,1403189
2025-09-11 14:21:26,1403139
2025-09-11 14:21:26,1403110
2025-09-11 14:21:26,1403120
2025-09-11 14:21:26,1403056
2025-09-11 14:21:26,1403114
2025-09-11 14:21:26,1403085
2025-09-11 14:21:26,1403134
2025-09-11 14:21:26,1403185
2025-09-11 14:21:26,1403242
2025-09-11 14:21:26,1403188
2025-09-11 14:21:26,1403265
2025-09-11 14:21:26,1403263
2025-09-11 14:21:26,1403388
2025-09-11 14:21:26,1403357
2025-09-11 14:21:26,1403384
2025-09-11 14:21:26,1403385
2025-09-11 14:21:26,1403509
2025-09-11 14:21:26,1403511
2025-09-11 14:21:26,1403556
2025-09-11 14:21:26,1403705
2025-09-11 14:21:26,1403715
2025-09-11 14:21:26,1403719
2025-09-11 14:21:26,1403773
2025-09-11 14:21:26,1403835
2025-09-11 14:21:26,1403904
2025-09-11 14:21:26,1403887
2025-09-11 14:21:26,1404005
2025-09-11 14:21:26,1404064
2025-09-11 14:21:26,1404170
2025-09-11 14:21:26,1404323
2025-09-11 14:21:26,1404372
2025-09-11 14:21:26,1404527
2025-09-11 14:21:26,1404573
2025-09-11 14:21:26,1404652
2025-09-11 14:21:26,1404691
2025-09-11 14:21:26,1404848
2025-09-11 14:21:26,1404843
2025-09-11 14:21:26,1404877
2025-09-11 14:21:26,1404753
2025-09-11 14:21:26,1404475
2025-09-11 14:21:26,1403997
2025-09-11 14:21:26,1403646
2025-09-11 14:21:26,1403330
2025-09-11 14:21:26,1402780
2025-09-11 14:21:26,1402675
2025-09-11 14:21:26,1402578
2025-09-11 14:21:26,1402468
2025-09-11 14:21:26,1402546
2025-09-11 14:21:26,1402556
2025-09-11 14:21:26,1402510
2025-09-11 14:21:26,1402439
2025-09-11 14:21:26,1402393
2025-09-11 14:21:26,1402376
2025-09-11 14:21:26,1402307
2025-09-11 14:21:26,1402291
2025-09-11 14:21:26,1402320
2025-09-11 14:21:26,1402246
2025-09-11 14:21:26,1402264
2025-09-11 14:21:26,1402164
2025-09-11 14:21:26,1402113
2025-09-11 14:21:26,1402093
2025-09-11 14:21:26,1402106
2025-09-11 14:21:26,1402215
2025-09-11 14:21:26,1402299
2025-09-11 14:21:26,1402298
2025-09-11 14:21:26,1402308
2025-09-11 14:21:26,1402310
2025-09-11 14:21:26,1402384
2025-09-11 14:21:26,1402417
2025-09-11 14:21:26,1402360
2025-09-11 14:21:26,1402370
2025-09-11 14:21:26,1402286
2025-09-11 14:21:26,1402336
2025-09-11 14:21:26,1402303
2025-09-11 14:21:26,1402327
2025-09-11 14:21:26,1402273
2025-09-11 14:21:26,1402327
2025-09-11 14:21:26,1402283
2025-09-11 14:21:26,1402291
2025-09-11 14:21:26,1402401
2025-09-11 14:21:26,1402410
2025-09-11 14:21:26,1402443
2025-09-11 14:21:26,1402493
2025-09-11 14:21:26,1402469
2025-09-11 14:21:26,1402508
2025-09-11 14:21:26,1402586
2025-09-11 14:21:26,1402504
2025-09-11 14:21:26,1402575
2025-09-11 14:21:26,1402600
2025-09-11 14:21:27,1402652
2025-09-11 14:21:27,1402672
2025-09-11 14:21:27,1402743
2025-09-11 14:21:27,1402781
2025-09-11 14:21:27,1402838
2025-09-11 14:21:27,1402811
2025-09-11 14:21:27,1402918
2025-09-11 14:21:27,1403014
2025-09-11 14:21:27,1403074
2025-09-11 14:21:27,1403033
2025-09-11 14:21:27,1403033
2025-09-11 14:21:27,1403078
2025-09-11 14:21:27,1403142
2025-09-11 14:21:27,1403162
2025-09-11 14:21:27,1403284
2025-09-11 14:21:27,1403370
2025-09-11 14:21:27,1403471
2025-09-11 14:21:27,1403557
2025-09-11 14:21:27,1403541
2025-09-11 14:21:27,1403588
2025-09-11 14:21:27,1403711
2025-09-11 14:21:27,1403819
2025-09-11 14:21:27,1403927
2025-09-11 14:21:27,1404045
2025-09-11 14:21:27,1404002
2025-09-11 14:21:27,1403938
2025-09-11 14:21:27,1403536
2025-09-11 14:21:27,1403133
2025-09-11 14:21:27,1402763
2025-09-11 14:21:27,1402534
2025-09-11 14:21:27,1402154
2025-09-11 14:21:27,1402007
2025-09-11 14:21:27,1401809
2025-09-11 14:21:27,1401648
2025-09-11 14:21:27,1401619
2025-09-11 14:21:27,1401590
2025-09-11 14:21:27,1401586
2025-09-11 14:21:27,1401480
2025-09-11 14:21:27,1401515
2025-09-11 14:21:27,1401492
2025-09-11 14:21:27,1401427
2025-09-11 14:21:27,1401291
2025-09-11 14:21:27,1401381
2025-09-11 14:21:27,1401342
2025-09-11 14:21:27,1401262
2025-09-11 14:21:27,1401307
2025-09-11 14:21:27,1401241
2025-09-11 14:21:27,1401129
2025-09-11 14:21:27,1401165
2025-09-11 14:21:27,1401159
2025-09-11 14:21:27,1401160
2025-09-11 14:21:27,1401208
2025-09-11 14:21:27,1401211
2025-09-11 14:21:27,1401254
2025-09-11 14:21:27,1401294
2025-09-11 14:21:27,1401276
2025-09-11 14:21:27,1401275
2025-09-11 14:21:27,1401318
2025-09-11 14:21:27,1401326
2025-09-11 14:21:27,1401304
2025-09-11 14:21:27,1401235
2025-09-11 14:21:27,1401189
2025-09-11 14:21:27,1401139
2025-09-11 14:21:27,1401144
2025-09-11 14:21:27,1401178
2025-09-11 14:21:27,1401194
2025-09-11 14:21:27,1401157
2025-09-11 14:21:27,1401206
2025-09-11 14:21:27,1401199
2025-09-11 14:21:27,1401067
2025-09-11 14:21:27,1401123
2025-09-11 14:21:27,1401186
2025-09-11 14:21:27,1401188
2025-09-11 14:21:27,1401221
2025-09-11 14:21:27,1401344
2025-09-11 14:21:27,1401308
2025-09-11 14:21:27,1401364
2025-09-11 14:21:27,1401333
2025-09-11 14:21:27,1401406
2025-09-11 14:21:27,1401483
2025-09-11 14:21:27,1401559
2025-09-11 14:21:27,1401632
2025-09-11 14:21:27,1401709
2025-09-11 14:21:27,1401769
2025-09-11 14:21:27,1401922
2025-09-11 14:21:27,1402111
2025-09-11 14:21:27,1402210
2025-09-11 14:21:27,1402256
2025-09-11 14:21:27,1402338
2025-09-11 14:21:27,1402473
2025-09-11 14:21:27,1402498
2025-09-11 14:21:27,1402567
2025-09-11 14:21:27,1402577
2025-09-11 14:21:27,1402723
2025-09-11 14:21:27,1402803
2025-09-11 14:21:27,1402885
2025-09-11 14:21:27,1403049
2025-09-11 14:21:27,1403252
2025-09-11 14:21:27,1403388
2025-09-11 14:21:28,1403466
2025-09-11 14:21:28,1403504
2025-09-11 14:21:28,1403609
2025-09-11 14:21:28,1403682
2025-09-11 14:21:28,1403742
2025-09-11 14:21:28,1403550
2025-09-11 14:21:28,1403384
2025-09-11 14:21:28,1402983
2025-09-11 14:21:28,1402619
2025-09-11 14:21:28,1402229
2025-09-11 14:21:28,1401948
2025-09-11 14:21:28,1401589
2025-09-11 14:21:28,1401483
2025-09-11 14:21:28,1401431
2025-09-11 14:21:28,1401348
2025-09-11 14:21:28,1401396
2025-09-11 14:21:28,1401338
2025-09-11 14:21:28,1401341
2025-09-11 14:21:28,1401338
2025-09-11 14:21:28,1401228
2025-09-11 14:21:28,1401263
2025-09-11 14:21:28,1401309
2025-09-11 14:21:28,1401252
2025-09-11 14:21:28,1401214
2025-09-11 14:21:28,1401201
2025-09-11 14:21:28,1401092
2025-09-11 14:21:28,1401075
2025-09-11 14:21:28,1400978
2025-09-11 14:21:28,1401005
2025-09-11 14:21:28,1401048
2025-09-11 14:21:28,1401043
2025-09-11 14:21:28,1401198
2025-09-11 14:21:28,1401197
2025-09-11 14:21:28,1401239
2025-09-11 14:21:28,1401234
2025-09-11 14:21:28,1401201
2025-09-11 14:21:28,1401294
2025-09-11 14:21:28,1401403
2025-09-11 14:21:28,1401456
2025-09-11 14:21:28,1401441
2025-09-11 14:21:28,1401436
2025-09-11 14:21:28,1401434
2025-09-11 14:21:28,1401479
2025-09-11 14:21:28,1401540
2025-09-11 14:21:28,1401479
2025-09-11 14:21:28,1401513
2025-09-11 14:21:28,1401584
2025-09-11 14:21:28,1401551
2025-09-11 14:21:28,1401571
2025-09-11 14:21:28,1401619
2025-09-11 14:21:28,1401571
2025-09-11 14:21:28,1401666
2025-09-11 14:21:28,1401677
2025-09-11 14:21:28,1401688
2025-09-11 14:21:28,1401743
2025-09-11 14:21:28,1401846
2025-09-11 14:21:28,1401857
2025-09-11 14:21:28,1401997
2025-09-11 14:21:28,1402061
2025-09-11 14:21:28,1402143
2025-09-11 14:21:28,1402164
2025-09-11 14:21:28,1402296
2025-09-11 14:21:28,1402315
2025-09-11 14:21:28,1402415
2025-09-11 14:21:28,1402535
2025-09-11 14:21:28,1402583
2025-09-11 14:21:28,1402714
2025-09-11 14:21:28,1402703
2025-09-11 14:21:28,1402837
2025-09-11 14:21:28,1402952
2025-09-11 14:21:28,1403061
2025-09-11 14:21:28,1403047
2025-09-11 14:21:28,1403180
2025-09-11 14:21:28,1403284
2025-09-11 14:21:28,1403346
2025-09-11 14:21:28,1403503
2025-09-11 14:21:28,1403645
2025-09-11 14:21:28,1403630
2025-09-11 14:21:28,1403780
2025-09-11 14:21:28,1403920
2025-09-11 14:21:28,1404017
2025-09-11 14:21:28,1404041
2025-09-11 14:21:28,1403874
2025-09-11 14:21:28,1403557
2025-09-11 14:21:28,1403254
2025-09-11 14:21:28,1402876
2025-09-11 14:21:28,1402626
2025-09-11 14:21:28,1402368
2025-09-11 14:21:28,1402141
2025-09-11 14:21:28,1402044
2025-09-11 14:21:28,1401977
2025-09-11 14:21:28,1401981
2025-09-11 14:21:28,1402058
2025-09-11 14:21:28,1402006
2025-09-11 14:21:28,1402076
2025-09-11 14:21:28,1402016
2025-09-11 14:21:28,1402039
2025-09-11 14:21:28,1401974
2025-09-11 14:21:28,1401997
2025-09-11 14:21:28,1402047
2025-09-11 14:21:28,1402133
2025-09-11 14:21:29,1402004
2025-09-11 14:21:29,1402202
2025-09-11 14:21:29,1402110
2025-09-11 14:21:29,1402150
2025-09-11 14:21:29,1402212
2025-09-11 14:21:29,1402241
2025-09-11 14:21:29,1402243
2025-09-11 14:21:29,1402468
2025-09-11 14:21:29,1402494
2025-09-11 14:21:29,1402597
2025-09-11 14:21:29,1402667
2025-09-11 14:21:29,1402660
2025-09-11 14:21:29,1402639
2025-09-11 14:21:29,1402661
2025-09-11 14:21:29,1402636
2025-09-11 14:21:29,1402660
2025-09-11 14:21:29,1402677
2025-09-11 14:21:29,1402598
2025-09-11 14:21:29,1402728
2025-09-11 14:21:29,1402752
2025-09-11 14:21:29,1402737
2025-09-11 14:21:29,1402695
2025-09-11 14:21:29,1402724
2025-09-11 14:21:29,1402638
2025-09-11 14:21:29,1402661
2025-09-11 14:21:29,1402766
2025-09-11 14:21:29,1402782
2025-09-11 14:21:29,1402821
2025-09-11 14:21:29,1402906
2025-09-11 14:21:29,1402925
2025-09-11 14:21:29,1403016
2025-09-11 14:21:29,1403035
2025-09-11 14:21:29,1403096
2025-09-11 14:21:29,1403111
2025-09-11 14:21:29,1403178
2025-09-11 14:21:29,1403263
2025-09-11 14:21:29,1403250
2025-09-11 14:21:29,1403350
2025-09-11 14:21:29,1403456
2025-09-11 14:21:29,1403580
2025-09-11 14:21:29,1403538
2025-09-11 14:21:29,1403617
2025-09-11 14:21:29,1403665
2025-09-11 14:21:29,1403725
2025-09-11 14:21:29,1403875
2025-09-11 14:21:29,1403927
2025-09-11 14:21:29,1404069
2025-09-11 14:21:29,1404073
2025-09-11 14:21:29,1404167
2025-09-11 14:21:29,1404343
2025-09-11 14:21:29,1404396
2025-09-11 14:21:29,1404475
2025-09-11 14:21:29,1404498
2025-09-11 14:21:29,1404416
2025-09-11 14:21:29,1404236
2025-09-11 14:21:29,1403866
2025-09-11 14:21:29,1403330
2025-09-11 14:21:29,1403063
2025-09-11 14:21:29,1402699
2025-09-11 14:21:29,1402551
2025-09-11 14:21:29,1402317
2025-09-11 14:21:29,1402254
2025-09-11 14:21:29,1402211
2025-09-11 14:21:29,1402207
2025-09-11 14:21:29,1402088
2025-09-11 14:21:29,1402110
2025-09-11 14:21:29,1402110
2025-09-11 14:21:29,1402083
2025-09-11 14:21:29,1402057
2025-09-11 14:21:29,1402031
2025-09-11 14:21:29,1402024
2025-09-11 14:21:29,1402000
2025-09-11 14:21:29,1402029
2025-09-11 14:21:29,1402075
2025-09-11 14:21:29,1402222
2025-09-11 14:21:29,1402181
2025-09-11 14:21:29,1402219
2025-09-11 14:21:29,1402284
2025-09-11 14:21:29,1402428
2025-09-11 14:21:29,1402360
2025-09-11 14:21:29,1402360
2025-09-11 14:21:29,1402474
2025-09-11 14:21:29,1402524
2025-09-11 14:21:29,1402568
2025-09-11 14:21:29,1402617
2025-09-11 14:21:29,1402639
2025-09-11 14:21:29,1402645
2025-09-11 14:21:29,1402587
2025-09-11 14:21:29,1402616
2025-09-11 14:21:29,1402537
2025-09-11 14:21:29,1402531
2025-09-11 14:21:29,1402574
2025-09-11 14:21:29,1402537
2025-09-11 14:21:29,1402491
2025-09-11 14:21:29,1402536
2025-09-11 14:21:29,1402602
2025-09-11 14:21:29,1402507
2025-09-11 14:21:29,1402437
2025-09-11 14:21:29,1402518
2025-09-11 14:21:29,1402544
2025-09-11 14:21:30,1402601
2025-09-11 14:21:30,1402681
2025-09-11 14:21:30,1402803
2025-09-11 14:21:30,1402834
2025-09-11 14:21:30,1402799
2025-09-11 14:21:30,1402824
2025-09-11 14:21:30,1402865
2025-09-11 14:21:30,1402894
2025-09-11 14:21:30,1403000
2025-09-11 14:21:30,1403095
2025-09-11 14:21:30,1403101
2025-09-11 14:21:30,1403134
2025-09-11 14:21:30,1403141
2025-09-11 14:21:30,1403126
2025-09-11 14:21:30,1403224
2025-09-11 14:21:30,1403193
2025-09-11 14:21:30,1403326
2025-09-11 14:21:30,1403359
2025-09-11 14:21:30,1403510
2025-09-11 14:21:30,1403568
2025-09-11 14:21:30,1403658
2025-09-11 14:21:30,1403729
2025-09-11 14:21:30,1403775
2025-09-11 14:21:30,1403847
2025-09-11 14:21:30,1403988
2025-09-11 14:21:30,1403964
2025-09-11 14:21:30,1403713
2025-09-11 14:21:30,1403305
2025-09-11 14:21:30,1402878
2025-09-11 14:21:30,1402609
2025-09-11 14:21:30,1402327
2025-09-11 14:21:30,1402019
2025-09-11 14:21:30,1401806
2025-09-11 14:21:30,1401631
2025-09-11 14:21:30,1401435
2025-09-11 14:21:30,1401411
2025-09-11 14:21:30,1401425
2025-09-11 14:21:30,1401378
2025-09-11 14:21:30,1401399
2025-09-11 14:21:30,1401309
2025-09-11 14:21:30,1401234
2025-09-11 14:21:30,1401175
2025-09-11 14:21:30,1401094
2025-09-11 14:21:30,1401049
2025-09-11 14:21:30,1401045
2025-09-11 14:21:30,1401017
2025-09-11 14:21:30,1400952
2025-09-11 14:21:30,1400921
2025-09-11 14:21:30,1400955
2025-09-11 14:21:30,1400783
2025-09-11 14:21:30,1400862
2025-09-11 14:21:30,1400900
2025-09-11 14:21:30,1400901
2025-09-11 14:21:30,1400865
2025-09-11 14:21:30,1400972
2025-09-11 14:21:30,1401019
2025-09-11 14:21:30,1401019
2025-09-11 14:21:30,1400961
2025-09-11 14:21:30,1400966
2025-09-11 14:21:30,1400893
2025-09-11 14:21:30,1400932
2025-09-11 14:21:30,1400901
2025-09-11 14:21:30,1400810
2025-09-11 14:21:30,1400839
2025-09-11 14:21:30,1400823
2025-09-11 14:21:30,1400823
2025-09-11 14:21:30,1400940
2025-09-11 14:21:30,1400832
2025-09-11 14:21:30,1400821
2025-09-11 14:21:30,1400854
2025-09-11 14:21:30,1400808
2025-09-11 14:21:30,1400794
2025-09-11 14:21:30,1400791
2025-09-11 14:21:30,1400836
2025-09-11 14:21:30,1400862
2025-09-11 14:21:30,1400782
2025-09-11 14:21:30,1400783
2025-09-11 14:21:30,1400858
2025-09-11 14:21:30,1400893
2025-09-11 14:21:30,1400983
2025-09-11 14:21:30,1401011
2025-09-11 14:21:30,1401091
2025-09-11 14:21:30,1401071
2025-09-11 14:21:30,1401136
2025-09-11 14:21:30,1401137
2025-09-11 14:21:30,1401131
2025-09-11 14:21:30,1401235
2025-09-11 14:21:30,1401246
2025-09-11 14:21:30,1401371
2025-09-11 14:21:30,1401350
2025-09-11 14:21:30,1401425
2025-09-11 14:21:30,1401477
2025-09-11 14:21:30,1401590
2025-09-11 14:21:30,1401655
2025-09-11 14:21:30,1401865
2025-09-11 14:21:30,1401924
2025-09-11 14:21:30,1402044
2025-09-11 14:21:30,1402032
2025-09-11 14:21:30,1402006
2025-09-11 14:21:30,1401830
2025-09-11 14:21:31,1401541
2025-09-11 14:21:31,1401107
2025-09-11 14:21:31,1400785
2025-09-11 14:21:31,1400435
2025-09-11 14:21:31,1400124
2025-09-11 14:21:31,1399783
2025-09-11 14:21:31,1399649
2025-09-11 14:21:31,1399497
2025-09-11 14:21:31,1399466
2025-09-11 14:21:31,1399405
2025-09-11 14:21:31,1399280
2025-09-11 14:21:31,1399230
2025-09-11 14:21:31,1399211
2025-09-11 14:21:31,1399096
2025-09-11 14:21:31,1399112
2025-09-11 14:21:31,1399116
2025-09-11 14:21:31,1399093
2025-09-11 14:21:31,1399005
2025-09-11 14:21:31,1398867
2025-09-11 14:21:31,1398889
2025-09-11 14:21:31,1398735
2025-09-11 14:21:31,1398737
2025-09-11 14:21:31,1398741
2025-09-11 14:21:31,1398741
2025-09-11 14:21:31,1398796
2025-09-11 14:21:31,1398723
2025-09-11 14:21:31,1398725
2025-09-11 14:21:31,1398853
2025-09-11 14:21:31,1398772
2025-09-11 14:21:31,1398862
2025-09-11 14:21:31,1398859
2025-09-11 14:21:31,1398875
2025-09-11 14:21:31,1398788
2025-09-11 14:21:31,1398751
2025-09-11 14:21:31,1398809
2025-09-11 14:21:31,1398725
2025-09-11 14:21:31,1398687
2025-09-11 14:21:31,1398731
2025-09-11 14:21:31,1398640
2025-09-11 14:21:31,1398694
2025-09-11 14:21:31,1398679
2025-09-11 14:21:31,1398678
2025-09-11 14:21:31,1398632
2025-09-11 14:21:31,1398610
2025-09-11 14:21:31,1398571
2025-09-11 14:21:31,1398615
2025-09-11 14:21:31,1398614
2025-09-11 14:21:31,1398560
2025-09-11 14:21:31,1398621
2025-09-11 14:21:31,1398634
2025-09-11 14:21:31,1398724
2025-09-11 14:21:31,1398766
2025-09-11 14:21:31,1398800
2025-09-11 14:21:31,1398888
2025-09-11 14:21:31,1398870
2025-09-11 14:21:31,1398988
2025-09-11 14:21:31,1398979
2025-09-11 14:21:31,1399013
2025-09-11 14:21:31,1399078
2025-09-11 14:21:31,1399096
2025-09-11 14:21:31,1399123
2025-09-11 14:21:31,1399279
2025-09-11 14:21:31,1399373
2025-09-11 14:21:31,1399409
2025-09-11 14:21:31,1399474
2025-09-11 14:21:31,1399529
2025-09-11 14:21:31,1399657
2025-09-11 14:21:31,1399765
2025-09-11 14:21:31,1399844
2025-09-11 14:21:31,1399974
2025-09-11 14:21:31,1399994
2025-09-11 14:21:31,1399946
2025-09-11 14:21:31,1399783
2025-09-11 14:21:31,1399431
2025-09-11 14:21:31,1399089
2025-09-11 14:21:31,1398738
2025-09-11 14:21:31,1398365
2025-09-11 14:21:31,1398054
2025-09-11 14:21:31,1397897
2025-09-11 14:21:31,1397717
2025-09-11 14:21:31,1397513
2025-09-11 14:21:31,1397469
2025-09-11 14:21:31,1397472
2025-09-11 14:21:31,1397358
2025-09-11 14:21:31,1397401
2025-09-11 14:21:31,1397268
2025-09-11 14:21:31,1397209
2025-09-11 14:21:31,1397173
2025-09-11 14:21:31,1397145
2025-09-11 14:21:31,1397104
2025-09-11 14:21:31,1397032
2025-09-11 14:21:31,1396903
2025-09-11 14:21:31,1396978
2025-09-11 14:21:31,1396913
2025-09-11 14:21:31,1396817
2025-09-11 14:21:31,1396873
2025-09-11 14:21:31,1396799
2025-09-11 14:21:31,1396869
2025-09-11 14:21:31,1396898
2025-09-11 14:21:32,1396801
2025-09-11 14:21:32,1396824
2025-09-11 14:21:32,1396804
2025-09-11 14:21:32,1396679
2025-09-11 14:21:32,1396730
2025-09-11 14:21:32,1396683
2025-09-11 14:21:32,1396652
2025-09-11 14:21:32,1396626
2025-09-11 14:21:32,1396417
2025-09-11 14:21:32,1396480
2025-09-11 14:21:32,1396403
2025-09-11 14:21:32,1396374
2025-09-11 14:21:32,1396377
2025-09-11 14:21:32,1396343
2025-09-11 14:21:32,1396264
2025-09-11 14:21:32,1396221
2025-09-11 14:21:32,1396194
2025-09-11 14:21:32,1396265
2025-09-11 14:21:32,1396247
2025-09-11 14:21:32,1396292
2025-09-11 14:21:32,1396322
2025-09-11 14:21:32,1396246
2025-09-11 14:21:32,1396408
2025-09-11 14:21:32,1396426
2025-09-11 14:21:32,1396512
2025-09-11 14:21:32,1396516
2025-09-11 14:21:32,1396616
2025-09-11 14:21:32,1396689
2025-09-11 14:21:32,1396699
2025-09-11 14:21:32,1396769
2025-09-11 14:21:32,1396862
2025-09-11 14:21:32,1396949
2025-09-11 14:21:32,1396979
2025-09-11 14:21:32,1397015
2025-09-11 14:21:32,1397168
2025-09-11 14:21:32,1397159
2025-09-11 14:21:32,1397271
2025-09-11 14:21:32,1397189
2025-09-11 14:21:32,1397297
2025-09-11 14:21:32,1397221
2025-09-11 14:21:32,1397561
2025-09-11 14:21:32,1397446
2025-09-11 14:21:32,1397781
2025-09-11 14:21:32,1398063
2025-09-11 14:21:32,1398163
2025-09-11 14:21:32,1398261
2025-09-11 14:21:32,1398428
2025-09-11 14:21:32,1398502
2025-09-11 14:21:32,1398296
2025-09-11 14:21:32,1398011
2025-09-11 14:21:32,1397676
2025-09-11 14:21:32,1397408
2025-09-11 14:21:32,1397104
2025-09-11 14:21:32,1396781
2025-09-11 14:21:32,1396724
2025-09-11 14:21:32,1396544
2025-09-11 14:21:32,1396442
2025-09-11 14:21:32,1396396
2025-09-11 14:21:32,1396335
2025-09-11 14:21:32,1396298
2025-09-11 14:21:32,1396266
2025-09-11 14:21:32,1396247
2025-09-11 14:21:32,1396228
2025-09-11 14:21:32,1396138
2025-09-11 14:21:32,1395993
2025-09-11 14:21:32,1395944
2025-09-11 14:21:32,1395847
2025-09-11 14:21:32,1395735
2025-09-11 14:21:32,1395721
2025-09-11 14:21:32,1395744
2025-09-11 14:21:32,1395661
2025-09-11 14:21:32,1395706
2025-09-11 14:21:32,1395713
2025-09-11 14:21:32,1395754
2025-09-11 14:21:32,1395721
2025-09-11 14:21:32,1395763
2025-09-11 14:21:32,1395647
2025-09-11 14:21:32,1395772
2025-09-11 14:21:32,1395835
2025-09-11 14:21:32,1395857
2025-09-11 14:21:32,1395850
2025-09-11 14:21:32,1395860
2025-09-11 14:21:32,1395741
2025-09-11 14:21:32,1395664
2025-09-11 14:21:32,1395713
2025-09-11 14:21:32,1395596
2025-09-11 14:21:32,1395627
2025-09-11 14:21:32,1395639
2025-09-11 14:21:32,1395637
2025-09-11 14:21:32,1395700
2025-09-11 14:21:32,1395596
2025-09-11 14:21:32,1395693
2025-09-11 14:21:32,1395640
2025-09-11 14:21:32,1395697
2025-09-11 14:21:32,1395755
2025-09-11 14:21:32,1395785
2025-09-11 14:21:32,1395912
2025-09-11 14:21:32,1395874
2025-09-11 14:21:32,1395983
2025-09-11 14:21:32,1396022
2025-09-11 14:21:32,1395977
2025-09-11 14:21:33,1396073
2025-09-11 14:21:33,1396101
2025-09-11 14:21:33,1396260
2025-09-11 14:21:33,1396344
2025-09-11 14:21:33,1396400
2025-09-11 14:21:33,1396557
2025-09-11 14:21:33,1396545
2025-09-11 14:21:33,1396630
2025-09-11 14:21:33,1396758
2025-09-11 14:21:33,1396746
2025-09-11 14:21:33,1396865
2025-09-11 14:21:33,1396866
2025-09-11 14:21:33,1397080
2025-09-11 14:21:33,1397091
2025-09-11 14:21:33,1397175
2025-09-11 14:21:33,1397273
2025-09-11 14:21:33,1397321
2025-09-11 14:21:33,1397493
2025-09-11 14:21:33,1397644
2025-09-11 14:21:33,1397710
2025-09-11 14:21:33,1397816
2025-09-11 14:21:33,1397959
2025-09-11 14:21:33,1398011
2025-09-11 14:21:33,1398011
2025-09-11 14:21:33,1397830
2025-09-11 14:21:33,1397538
2025-09-11 14:21:33,1397170
2025-09-11 14:21:33,1396809
2025-09-11 14:21:33,1396450
2025-09-11 14:21:33,1396288
2025-09-11 14:21:33,1396079
2025-09-11 14:21:33,1395967
2025-09-11 14:21:33,1395883
2025-09-11 14:21:33,1395859
2025-09-11 14:21:33,1395926
2025-09-11 14:21:33,1395898
2025-09-11 14:21:33,1395786
2025-09-11 14:21:33,1395807
2025-09-11 14:21:33,1395790
2025-09-11 14:21:33,1395806
2025-09-11 14:21:33,1395752
2025-09-11 14:21:33,1395742
2025-09-11 14:21:33,1395770
2025-09-11 14:21:33,1395704
2025-09-11 14:21:33,1395826
2025-09-11 14:21:33,1395887
2025-09-11 14:21:33,1395921
2025-09-11 14:21:33,1395921
2025-09-11 14:21:33,1396024
2025-09-11 14:21:33,1396141
2025-09-11 14:21:33,1396187
2025-09-11 14:21:33,1396305
2025-09-11 14:21:33,1396290
2025-09-11 14:21:33,1396315
2025-09-11 14:21:33,1396379
2025-09-11 14:21:33,1396443
2025-09-11 14:21:33,1396425
2025-09-11 14:21:33,1396487
2025-09-11 14:21:33,1396439
2025-09-11 14:21:33,1396348
2025-09-11 14:21:33,1396393
2025-09-11 14:21:33,1396368
2025-09-11 14:21:33,1396470
2025-09-11 14:21:33,1396524
2025-09-11 14:21:33,1396472
2025-09-11 14:21:33,1396456
2025-09-11 14:21:33,1396557
2025-09-11 14:21:33,1396506
2025-09-11 14:21:33,1396537
2025-09-11 14:21:33,1396577
2025-09-11 14:21:33,1396622
2025-09-11 14:21:33,1396628
2025-09-11 14:21:33,1396719
2025-09-11 14:21:33,1396676
2025-09-11 14:21:33,1396777
2025-09-11 14:21:33,1396870
2025-09-11 14:21:33,1396933
2025-09-11 14:21:33,1397075
2025-09-11 14:21:33,1397149
2025-09-11 14:21:33,1397168
2025-09-11 14:21:33,1397280
2025-09-11 14:21:33,1397321
2025-09-11 14:21:33,1397378
2025-09-11 14:21:33,1397519
2025-09-11 14:21:33,1397559
2025-09-11 14:21:33,1397589
2025-09-11 14:21:33,1397678
2025-09-11 14:21:33,1397735
2025-09-11 14:21:33,1397783
2025-09-11 14:21:33,1397926
2025-09-11 14:21:33,1398054
2025-09-11 14:21:33,1398070
2025-09-11 14:21:33,1398145
2025-09-11 14:21:33,1398217
2025-09-11 14:21:33,1398379
2025-09-11 14:21:33,1398400
2025-09-11 14:21:33,1398438
2025-09-11 14:21:33,1398526
2025-09-11 14:21:33,1398550
2025-09-11 14:21:34,1398351
2025-09-11 14:21:34,1398012
2025-09-11 14:21:34,1397579
2025-09-11 14:21:34,1397272
2025-09-11 14:21:34,1397046
2025-09-11 14:21:34,1396732
2025-09-11 14:21:34,1396661
2025-09-11 14:21:34,1396540
2025-09-11 14:21:34,1396529
2025-09-11 14:21:34,1396471
2025-09-11 14:21:34,1396563
2025-09-11 14:21:34,1396628
2025-09-11 14:21:34,1396603
2025-09-11 14:21:34,1396539
2025-09-11 14:21:34,1396586
2025-09-11 14:21:34,1396603
2025-09-11 14:21:34,1396547
2025-09-11 14:21:34,1396550
2025-09-11 14:21:34,1396654
2025-09-11 14:21:34,1396544
2025-09-11 14:21:34,1396597
2025-09-11 14:21:34,1396581
2025-09-11 14:21:34,1396546
2025-09-11 14:21:34,1396568
2025-09-11 14:21:34,1396597
2025-09-11 14:21:34,1396767
2025-09-11 14:21:34,1396818
2025-09-11 14:21:34,1396769
2025-09-11 14:21:34,1396896
2025-09-11 14:21:34,1396951
2025-09-11 14:21:34,1396887
2025-09-11 14:21:34,1396972
2025-09-11 14:21:34,1396912
2025-09-11 14:21:34,1396917
2025-09-11 14:21:34,1396864
2025-09-11 14:21:34,1396832
2025-09-11 14:21:34,1396795
2025-09-11 14:21:34,1396765
2025-09-11 14:21:34,1396832
2025-09-11 14:21:34,1396805
2025-09-11 14:21:34,1396804
2025-09-11 14:21:34,1396872
2025-09-11 14:21:34,1396806
2025-09-11 14:21:34,1396715
2025-09-11 14:21:34,1396777
2025-09-11 14:21:34,1396805
2025-09-11 14:21:34,1396761
2025-09-11 14:21:34,1396721
2025-09-11 14:21:34,1396790
2025-09-11 14:21:34,1396885
2025-09-11 14:21:34,1396881
2025-09-11 14:21:34,1397059
2025-09-11 14:21:34,1397110
2025-09-11 14:21:34,1397219
2025-09-11 14:21:34,1397346
2025-09-11 14:21:34,1397425
2025-09-11 14:21:34,1397418
2025-09-11 14:21:34,1397486
2025-09-11 14:21:34,1397577
2025-09-11 14:21:34,1397633
2025-09-11 14:21:34,1397687
2025-09-11 14:21:34,1397812
2025-09-11 14:21:34,1397855
2025-09-11 14:21:34,1398028
2025-09-11 14:21:34,1398093
2025-09-11 14:21:34,1398185
2025-09-11 14:21:34,1398254
2025-09-11 14:21:34,1398286
2025-09-11 14:21:34,1398441
2025-09-11 14:21:34,1398490
2025-09-11 14:21:34,1398634
2025-09-11 14:21:34,1398657
2025-09-11 14:21:34,1398753
2025-09-11 14:21:34,1398823
2025-09-11 14:21:34,1398932
2025-09-11 14:21:34,1398990
2025-09-11 14:21:34,1399013
2025-09-11 14:21:34,1399045
2025-09-11 14:21:34,1398864
2025-09-11 14:21:34,1398647
2025-09-11 14:21:34,1398148
2025-09-11 14:21:34,1397831
2025-09-11 14:21:34,1397336
2025-09-11 14:21:34,1397168
2025-09-11 14:21:34,1396967
2025-09-11 14:21:34,1396709
2025-09-11 14:21:34,1396547
2025-09-11 14:21:34,1396459
2025-09-11 14:21:34,1396474
2025-09-11 14:21:34,1396414
2025-09-11 14:21:34,1396491
2025-09-11 14:21:34,1396433
2025-09-11 14:21:34,1396437
2025-09-11 14:21:34,1396379
2025-09-11 14:21:34,1396358
2025-09-11 14:21:34,1396263
2025-09-11 14:21:34,1396211
2025-09-11 14:21:34,1396220
2025-09-11 14:21:34,1396261
2025-09-11 14:21:34,1396158
2025-09-11 14:21:35,1396125
2025-09-11 14:21:35,1396180
2025-09-11 14:21:35,1396123
2025-09-11 14:21:35,1396146
2025-09-11 14:21:35,1396229
2025-09-11 14:21:35,1396178
2025-09-11 14:21:35,1396264
2025-09-11 14:21:35,1396293
2025-09-11 14:21:35,1396292
2025-09-11 14:21:35,1396298
2025-09-11 14:21:35,1396287
2025-09-11 14:21:35,1396237
2025-09-11 14:21:35,1396245
2025-09-11 14:21:35,1396213
2025-09-11 14:21:35,1396275
2025-09-11 14:21:35,1396202
2025-09-11 14:21:35,1396133
2025-09-11 14:21:35,1396140
2025-09-11 14:21:35,1396118
2025-09-11 14:21:35,1396147
2025-09-11 14:21:35,1396129
2025-09-11 14:21:35,1396162
2025-09-11 14:21:35,1396188
2025-09-11 14:21:35,1396209
2025-09-11 14:21:35,1396154
2025-09-11 14:21:35,1396214
2025-09-11 14:21:35,1396218
2025-09-11 14:21:35,1396230
2025-09-11 14:21:35,1396300
2025-09-11 14:21:35,1396303
2025-09-11 14:21:35,1396374
2025-09-11 14:21:35,1396324
2025-09-11 14:21:35,1396528
2025-09-11 14:21:35,1396529
2025-09-11 14:21:35,1396533
2025-09-11 14:21:35,1396631
2025-09-11 14:21:35,1396654
2025-09-11 14:21:35,1396776
2025-09-11 14:21:35,1396773
2025-09-11 14:21:35,1396836
2025-09-11 14:21:35,1396886
2025-09-11 14:21:35,1396931
2025-09-11 14:21:35,1396899
2025-09-11 14:21:35,1397083
2025-09-11 14:21:35,1397162
2025-09-11 14:21:35,1397130
2025-09-11 14:21:35,1397247
2025-09-11 14:21:35,1397295
2025-09-11 14:21:35,1397370
2025-09-11 14:21:35,1397417
2025-09-11 14:21:35,1397463
2025-09-11 14:21:35,1397548
2025-09-11 14:21:35,1397689
2025-09-11 14:21:35,1397812
2025-09-11 14:21:35,1397940
2025-09-11 14:21:35,1398097
2025-09-11 14:21:35,1398154
2025-09-11 14:21:35,1398254
2025-09-11 14:21:35,1398331
2025-09-11 14:21:35,1398291
2025-09-11 14:21:35,1398203
2025-09-11 14:21:35,1397954
2025-09-11 14:21:35,1397574
2025-09-11 14:21:35,1397126
2025-09-11 14:21:35,1396834
2025-09-11 14:21:35,1396683
2025-09-11 14:21:35,1396410
2025-09-11 14:21:35,1396191
2025-09-11 14:21:35,1396104
2025-09-11 14:21:35,1396021
2025-09-11 14:21:35,1395938
2025-09-11 14:21:35,1396012
2025-09-11 14:21:35,1396007
2025-09-11 14:21:35,1396025
2025-09-11 14:21:35,1395996
2025-09-11 14:21:35,1396056
2025-09-11 14:21:35,1395947
2025-09-11 14:21:35,1395936
2025-09-11 14:21:35,1395957
2025-09-11 14:21:35,1395883
2025-09-11 14:21:35,1395910
2025-09-11 14:21:35,1395889
2025-09-11 14:21:35,1395832
2025-09-11 14:21:35,1395846
2025-09-11 14:21:35,1395786
2025-09-11 14:21:35,1395898
2025-09-11 14:21:35,1395893
2025-09-11 14:21:35,1395912
2025-09-11 14:21:35,1396013
2025-09-11 14:21:35,1396072
2025-09-11 14:21:35,1396038
2025-09-11 14:21:35,1396135
2025-09-11 14:21:35,1396244
2025-09-11 14:21:35,1396287
2025-09-11 14:21:35,1396229
2025-09-11 14:21:35,1396150
2025-09-11 14:21:35,1396211
2025-09-11 14:21:35,1396195
2025-09-11 14:21:35,1396223
2025-09-11 14:21:35,1396318
2025-09-11 14:21:36,1396217
2025-09-11 14:21:36,1396245
2025-09-11 14:21:36,1396265
2025-09-11 14:21:36,1396307
2025-09-11 14:21:36,1396279
2025-09-11 14:21:36,1396286
2025-09-11 14:21:36,1396259
2025-09-11 14:21:36,1396378
2025-09-11 14:21:36,1396334
2025-09-11 14:21:36,1396355
2025-09-11 14:21:36,1396395
2025-09-11 14:21:36,1396499
2025-09-11 14:21:36,1396558
2025-09-11 14:21:36,1396658
2025-09-11 14:21:36,1396731
2025-09-11 14:21:36,1396826
2025-09-11 14:21:36,1396823
2025-09-11 14:21:36,1396910
2025-09-11 14:21:36,1396859
2025-09-11 14:21:36,1397013
2025-09-11 14:21:36,1397171
2025-09-11 14:21:36,1397199
2025-09-11 14:21:36,1397256
2025-09-11 14:21:36,1397446
2025-09-11 14:21:36,1397477
2025-09-11 14:21:36,1397500
2025-09-11 14:21:36,1397677
2025-09-11 14:21:36,1397670
2025-09-11 14:21:36,1397752
2025-09-11 14:21:36,1397830
2025-09-11 14:21:36,1397935
2025-09-11 14:21:36,1398020
2025-09-11 14:21:36,1398054
2025-09-11 14:21:36,1398183
2025-09-11 14:21:36,1398323
2025-09-11 14:21:36,1398454
2025-09-11 14:21:36,1398520
2025-09-11 14:21:36,1398649
2025-09-11 14:21:36,1398717
2025-09-11 14:21:36,1398848
2025-09-11 14:21:36,1398789
2025-09-11 14:21:36,1398755
2025-09-11 14:21:36,1398464
2025-09-11 14:21:36,1398072
2025-09-11 14:21:36,1397701
2025-09-11 14:21:36,1397400
2025-09-11 14:21:36,1397009
2025-09-11 14:21:36,1396821
2025-09-11 14:21:36,1396655
2025-09-11 14:21:36,1396621
2025-09-11 14:21:36,1396436
2025-09-11 14:21:36,1396365
2025-09-11 14:21:36,1396332
2025-09-11 14:21:36,1396410
2025-09-11 14:21:36,1396401
2025-09-11 14:21:36,1396352
2025-09-11 14:21:36,1396365
2025-09-11 14:21:36,1396364
2025-09-11 14:21:36,1396312
2025-09-11 14:21:36,1396371
2025-09-11 14:21:36,1396378
2025-09-11 14:21:36,1396467
2025-09-11 14:21:36,1396438
2025-09-11 14:21:36,1396389
2025-09-11 14:21:36,1396393
2025-09-11 14:21:36,1396377
2025-09-11 14:21:36,1396432
2025-09-11 14:21:36,1396464
2025-09-11 14:21:36,1396560
2025-09-11 14:21:36,1396604
2025-09-11 14:21:36,1396670
2025-09-11 14:21:36,1396717
2025-09-11 14:21:36,1396724
2025-09-11 14:21:36,1396811
2025-09-11 14:21:36,1396792
2025-09-11 14:21:36,1396778
2025-09-11 14:21:36,1396769
2025-09-11 14:21:36,1396774
2025-09-11 14:21:36,1396799
2025-09-11 14:21:36,1396794
2025-09-11 14:21:36,1396801
2025-09-11 14:21:36,1396716
2025-09-11 14:21:36,1396764
2025-09-11 14:21:36,1396790
2025-09-11 14:21:36,1396689
2025-09-11 14:21:36,1396811
2025-09-11 14:21:36,1396761
2025-09-11 14:21:36,1396763
2025-09-11 14:21:36,1396749
2025-09-11 14:21:36,1396782
2025-09-11 14:21:36,1396823
2025-09-11 14:21:36,1396871
2025-09-11 14:21:36,1396864
2025-09-11 14:21:36,1397008
2025-09-11 14:21:36,1397018
2025-09-11 14:21:36,1397053
2025-09-11 14:21:36,1397125
2025-09-11 14:21:36,1397236
2025-09-11 14:21:36,1397268
2025-09-11 14:21:36,1397329
2025-09-11 14:21:37,1397414
2025-09-11 14:21:37,1397518
2025-09-11 14:21:37,1397606
2025-09-11 14:21:37,1397705
2025-09-11 14:21:37,1397768
2025-09-11 14:21:37,1397827
2025-09-11 14:21:37,1397902
2025-09-11 14:21:37,1397950
2025-09-11 14:21:37,1398133
2025-09-11 14:21:37,1398165
2025-09-11 14:21:37,1398307
2025-09-11 14:21:37,1398374
2025-09-11 14:21:37,1398463
2025-09-11 14:21:37,1398599
2025-09-11 14:21:37,1398710
2025-09-11 14:21:37,1398830
2025-09-11 14:21:37,1398864
