timestamp,value
2025-09-03 18:32:02,157248
2025-09-03 18:32:02,120481
2025-09-03 18:32:02,120428
2025-09-03 18:32:02,120379
2025-09-03 18:32:02,120383
2025-09-03 18:32:02,120333
2025-09-03 18:32:02,120332
2025-09-03 18:32:02,120320
2025-09-03 18:32:02,120294
2025-09-03 18:32:02,120285
2025-09-03 18:32:02,120253
2025-09-03 18:32:02,120265
2025-09-03 18:32:02,120233
2025-09-03 18:32:02,120208
2025-09-03 18:32:02,120235
2025-09-03 18:32:02,120256
2025-09-03 18:32:02,120292
2025-09-03 18:32:02,120304
2025-09-03 18:32:02,120313
2025-09-03 18:32:02,120266
2025-09-03 18:32:02,120256
2025-09-03 18:32:02,120209
2025-09-03 18:32:02,120220
2025-09-03 18:32:02,120153
2025-09-03 18:32:02,93917
2025-09-03 18:32:02,165028
2025-09-03 18:32:02,164965
2025-09-03 18:32:02,165006
2025-09-03 18:32:02,164961
2025-09-03 18:32:02,164968
2025-09-03 18:32:02,164986
2025-09-03 18:32:02,165020
2025-09-03 18:32:02,164990
2025-09-03 18:32:02,164997
2025-09-03 18:32:02,165050
2025-09-03 18:32:02,164982
2025-09-03 18:32:02,165018
2025-09-03 18:32:02,165034
2025-09-03 18:32:02,363808
2025-09-03 18:32:02,319871
2025-09-03 18:32:02,319774
2025-09-03 18:32:02,319807
2025-09-03 18:32:02,319801
2025-09-03 18:32:02,319754
2025-09-03 18:32:02,319767
2025-09-03 18:32:02,319786
2025-09-03 18:32:02,319859
2025-09-03 18:32:02,319852
2025-09-03 18:32:02,319857
2025-09-03 18:32:02,319822
2025-09-03 18:32:02,319698
2025-09-03 18:32:02,319589
2025-09-03 18:32:02,1584350
2025-09-03 18:32:02,1602903
2025-09-03 18:32:02,1602615
2025-09-03 18:32:02,1602280
2025-09-03 18:32:03,1601327
2025-09-03 18:32:03,1600446
2025-09-03 18:32:03,1599657
2025-09-03 18:32:03,1599105
2025-09-03 18:32:03,1598628
2025-09-03 18:32:03,1597667
2025-09-03 18:32:03,1596393
2025-09-03 18:32:03,1595112
2025-09-03 18:32:03,1594134
2025-09-03 18:32:03,1593419
2025-09-03 18:32:03,1597947
2025-09-03 18:32:03,1590868
2025-09-03 18:32:03,1589528
2025-09-03 18:32:03,1587880
2025-09-03 18:32:03,1585787
2025-09-03 18:32:03,1583739
2025-09-03 18:32:03,1582254
2025-09-03 18:32:03,1582065
2025-09-03 18:32:03,1581693
2025-09-03 18:32:03,1581286
2025-09-03 18:32:03,1580839
2025-09-03 18:32:03,1580251
2025-09-03 18:32:03,1579632
2025-09-03 18:32:03,1578873
2025-09-03 18:32:03,1577502
2025-09-03 18:32:03,1575932
2025-09-03 18:32:03,1574401
2025-09-03 18:32:03,1572871
2025-09-03 18:32:03,1571470
2025-09-03 18:32:03,1570758
2025-09-03 18:32:03,1570341
2025-09-03 18:32:03,1570025
2025-09-03 18:32:03,1569310
2025-09-03 18:32:03,1568316
2025-09-03 18:32:03,1567555
2025-09-03 18:32:03,1566817
2025-09-03 18:32:03,1566503
2025-09-03 18:32:03,1566257
2025-09-03 18:32:03,1566014
2025-09-03 18:32:03,1565570
2025-09-03 18:32:03,1565012
2025-09-03 18:32:03,1564072
2025-09-03 18:32:03,1563072
2025-09-03 18:32:03,1562025
2025-09-03 18:32:03,1561016
2025-09-03 18:32:03,1560560
2025-09-03 18:32:03,1560341
2025-09-03 18:32:03,1560358
2025-09-03 18:32:03,1560400
2025-09-03 18:32:03,1560411
2025-09-03 18:32:03,1560216
2025-09-03 18:32:03,1559981
2025-09-03 18:32:03,1560105
2025-09-03 18:32:03,1560050
2025-09-03 18:32:03,1560456
2025-09-03 18:32:03,1560786
2025-09-03 18:32:03,1561316
2025-09-03 18:32:03,1561764
2025-09-03 18:32:03,1562543
2025-09-03 18:32:03,1563107
2025-09-03 18:32:03,1563544
2025-09-03 18:32:03,1563853
2025-09-03 18:32:03,1564004
2025-09-03 18:32:03,1564381
2025-09-03 18:32:03,1564751
2025-09-03 18:32:03,1565302
2025-09-03 18:32:03,1565620
2025-09-03 18:32:03,1565770
2025-09-03 18:32:03,1565737
2025-09-03 18:32:03,1565280
2025-09-03 18:32:03,1564781
2025-09-03 18:32:03,1564587
2025-09-03 18:32:03,1564433
2025-09-03 18:32:03,1564189
2025-09-03 18:32:03,1563994
2025-09-03 18:32:03,1563607
2025-09-03 18:32:03,1563094
2025-09-03 18:32:03,1562435
2025-09-03 18:32:03,1561686
2025-09-03 18:32:03,1561372
2025-09-03 18:32:03,1561256
2025-09-03 18:32:03,1561290
2025-09-03 18:32:03,1561341
2025-09-03 18:32:03,1561254
2025-09-03 18:32:03,1560989
2025-09-03 18:32:03,1560698
2025-09-03 18:32:03,1560490
2025-09-03 18:32:03,1560312
2025-09-03 18:32:03,1560236
2025-09-03 18:32:03,1560259
2025-09-03 18:32:03,1560358
2025-09-03 18:32:03,1560442
2025-09-03 18:32:03,1560694
2025-09-03 18:32:03,1560625
2025-09-03 18:32:03,1560695
2025-09-03 18:32:03,1560760
2025-09-03 18:32:03,1560817
2025-09-03 18:32:03,1560900
2025-09-03 18:32:03,1560792
2025-09-03 18:32:03,1560438
2025-09-03 18:32:04,1560064
2025-09-03 18:32:04,1559933
2025-09-03 18:32:04,1559614
2025-09-03 18:32:04,1559518
2025-09-03 18:32:04,1559249
2025-09-03 18:32:04,1558939
2025-09-03 18:32:04,1558209
2025-09-03 18:32:04,1557667
2025-09-03 18:32:04,1557321
2025-09-03 18:32:04,1557094
2025-09-03 18:32:04,1556946
2025-09-03 18:32:04,1556992
2025-09-03 18:32:04,1557101
2025-09-03 18:32:04,1557203
2025-09-03 18:32:04,1557265
2025-09-03 18:32:04,1557300
2025-09-03 18:32:04,1557396
2025-09-03 18:32:04,1557543
2025-09-03 18:32:04,1557626
2025-09-03 18:32:04,1557606
2025-09-03 18:32:04,1557688
2025-09-03 18:32:04,1557627
2025-09-03 18:32:04,1557696
2025-09-03 18:32:04,1557731
2025-09-03 18:32:04,1557861
2025-09-03 18:32:04,1557965
2025-09-03 18:32:04,1558262
2025-09-03 18:32:04,1558530
2025-09-03 18:32:04,1558758
2025-09-03 18:32:04,1558951
2025-09-03 18:32:04,1558893
2025-09-03 18:32:04,1558689
2025-09-03 18:32:04,1558200
2025-09-03 18:32:04,1557441
2025-09-03 18:32:04,1556803
2025-09-03 18:32:04,1556322
2025-09-03 18:32:04,1555905
2025-09-03 18:32:04,1555799
2025-09-03 18:32:04,1555776
2025-09-03 18:32:04,1555429
2025-09-03 18:32:04,1555235
2025-09-03 18:32:04,1554803
2025-09-03 18:32:04,1554460
2025-09-03 18:32:04,1554327
2025-09-03 18:32:04,1554354
2025-09-03 18:32:04,1554453
2025-09-03 18:32:04,1554553
2025-09-03 18:32:04,1554702
2025-09-03 18:32:04,1554720
2025-09-03 18:32:04,1554894
2025-09-03 18:32:04,1554855
2025-09-03 18:32:04,1554823
2025-09-03 18:32:04,1555043
2025-09-03 18:32:04,1555132
2025-09-03 18:32:04,1555424
2025-09-03 18:32:04,1555627
2025-09-03 18:32:04,1555863
2025-09-03 18:32:04,1555896
2025-09-03 18:32:04,1555816
2025-09-03 18:32:04,1555739
2025-09-03 18:32:04,1555884
2025-09-03 18:32:04,1556127
2025-09-03 18:32:04,1556377
2025-09-03 18:32:04,1556541
2025-09-03 18:32:04,1556818
2025-09-03 18:32:04,1556900
2025-09-03 18:32:04,1556948
2025-09-03 18:32:04,1556823
2025-09-03 18:32:04,1556657
2025-09-03 18:32:04,1556373
2025-09-03 18:32:04,1556288
2025-09-03 18:32:04,1556189
2025-09-03 18:32:04,1555973
2025-09-03 18:32:04,1555565
2025-09-03 18:32:04,1555302
2025-09-03 18:32:04,1555187
2025-09-03 18:32:04,1555062
2025-09-03 18:32:04,1555006
2025-09-03 18:32:04,1554951
2025-09-03 18:32:04,1554982
2025-09-03 18:32:04,1555054
2025-09-03 18:32:04,1555087
2025-09-03 18:32:04,1554987
2025-09-03 18:32:04,1555039
2025-09-03 18:32:04,1555170
2025-09-03 18:32:04,1555297
2025-09-03 18:32:04,1555334
2025-09-03 18:32:04,1555405
2025-09-03 18:32:04,1555362
2025-09-03 18:32:04,1555406
2025-09-03 18:32:04,1555413
2025-09-03 18:32:04,1555324
2025-09-03 18:32:04,1555424
2025-09-03 18:32:04,1555564
2025-09-03 18:32:04,1555599
2025-09-03 18:32:04,1555554
2025-09-03 18:32:04,1555518
2025-09-03 18:32:04,1555414
2025-09-03 18:32:04,1555325
2025-09-03 18:32:05,1555278
2025-09-03 18:32:05,1555295
2025-09-03 18:32:05,1555335
2025-09-03 18:32:05,1555326
2025-09-03 18:32:05,1555429
2025-09-03 18:32:05,1555437
2025-09-03 18:32:05,1555485
2025-09-03 18:32:05,1555462
2025-09-03 18:32:05,1555483
2025-09-03 18:32:05,1555613
2025-09-03 18:32:05,1555627
2025-09-03 18:32:05,1555749
2025-09-03 18:32:05,1555921
2025-09-03 18:32:05,1556033
2025-09-03 18:32:05,1555911
2025-09-03 18:32:05,1555926
2025-09-03 18:32:05,1556036
2025-09-03 18:32:05,1556187
2025-09-03 18:32:05,1556377
2025-09-03 18:32:05,1556466
2025-09-03 18:32:05,1556457
2025-09-03 18:32:05,1556531
2025-09-03 18:32:05,1556426
2025-09-03 18:32:05,1556364
2025-09-03 18:32:05,1556352
2025-09-03 18:32:05,1556518
2025-09-03 18:32:05,1556724
2025-09-03 18:32:05,1556857
2025-09-03 18:32:05,1556847
2025-09-03 18:32:05,1556888
2025-09-03 18:32:05,1557076
2025-09-03 18:32:05,1557170
2025-09-03 18:32:05,1557138
2025-09-03 18:32:05,1557007
2025-09-03 18:32:05,1556656
2025-09-03 18:32:05,1556341
2025-09-03 18:32:05,1556021
2025-09-03 18:32:05,1555798
2025-09-03 18:32:05,1555432
2025-09-03 18:32:05,1555269
2025-09-03 18:32:05,1555190
2025-09-03 18:32:05,1555320
2025-09-03 18:32:05,1555233
2025-09-03 18:32:05,1555363
2025-09-03 18:32:05,1555309
2025-09-03 18:32:05,1555271
2025-09-03 18:32:05,1555472
2025-09-03 18:32:05,1555661
2025-09-03 18:32:05,1555814
2025-09-03 18:32:05,1556004
2025-09-03 18:32:05,1556070
2025-09-03 18:32:05,1556240
2025-09-03 18:32:05,1556173
2025-09-03 18:32:05,1556148
2025-09-03 18:32:05,1556290
2025-09-03 18:32:05,1556323
2025-09-03 18:32:05,1556389
2025-09-03 18:32:05,1556405
2025-09-03 18:32:05,1556414
2025-09-03 18:32:05,1556364
2025-09-03 18:32:05,1556233
2025-09-03 18:32:05,1556159
2025-09-03 18:32:05,1556093
2025-09-03 18:32:05,1556022
2025-09-03 18:32:05,1555860
2025-09-03 18:32:05,1555806
2025-09-03 18:32:05,1555723
2025-09-03 18:32:05,1555810
2025-09-03 18:32:05,1555837
2025-09-03 18:32:05,1555787
2025-09-03 18:32:05,1555881
2025-09-03 18:32:05,1555871
2025-09-03 18:32:05,1555825
2025-09-03 18:32:05,1555890
2025-09-03 18:32:05,1555808
2025-09-03 18:32:05,1555866
2025-09-03 18:32:05,1555961
2025-09-03 18:32:05,1555952
2025-09-03 18:32:05,1555941
2025-09-03 18:32:05,1556025
2025-09-03 18:32:05,1556002
2025-09-03 18:32:05,1556078
2025-09-03 18:32:05,1556062
2025-09-03 18:32:05,1556120
2025-09-03 18:32:05,1556063
2025-09-03 18:32:05,1556217
2025-09-03 18:32:05,1556331
2025-09-03 18:32:05,1556382
2025-09-03 18:32:05,1556339
2025-09-03 18:32:05,1556507
2025-09-03 18:32:05,1556510
2025-09-03 18:32:05,1556441
2025-09-03 18:32:05,1556588
2025-09-03 18:32:05,1556581
2025-09-03 18:32:05,1556368
2025-09-03 18:32:05,1555926
2025-09-03 18:32:05,1555567
2025-09-03 18:32:05,1555204
2025-09-03 18:32:05,1554929
2025-09-03 18:32:05,1554637
2025-09-03 18:32:06,1554324
2025-09-03 18:32:06,1554180
2025-09-03 18:32:06,1553959
2025-09-03 18:32:06,1553842
2025-09-03 18:32:06,1553890
2025-09-03 18:32:06,1553858
2025-09-03 18:32:06,1553998
2025-09-03 18:32:06,1554071
2025-09-03 18:32:06,1554106
2025-09-03 18:32:06,1554214
2025-09-03 18:32:06,1554129
2025-09-03 18:32:06,1554253
2025-09-03 18:32:06,1554257
2025-09-03 18:32:06,1554298
2025-09-03 18:32:06,1554361
2025-09-03 18:32:06,1554397
2025-09-03 18:32:06,1554572
2025-09-03 18:32:06,1554618
2025-09-03 18:32:06,1554697
2025-09-03 18:32:06,1554810
2025-09-03 18:32:06,1554850
2025-09-03 18:32:06,1554800
2025-09-03 18:32:06,1554799
2025-09-03 18:32:06,1554781
2025-09-03 18:32:06,1554651
2025-09-03 18:32:06,1554707
2025-09-03 18:32:06,1554591
2025-09-03 18:32:06,1554571
2025-09-03 18:32:06,1554563
2025-09-03 18:32:06,1554591
2025-09-03 18:32:06,1554577
2025-09-03 18:32:06,1554641
2025-09-03 18:32:06,1554725
2025-09-03 18:32:06,1554808
2025-09-03 18:32:06,1554941
2025-09-03 18:32:06,1554888
2025-09-03 18:32:06,1554913
2025-09-03 18:32:06,1555058
2025-09-03 18:32:06,1555089
2025-09-03 18:32:06,1555136
2025-09-03 18:32:06,1555219
2025-09-03 18:32:06,1555223
2025-09-03 18:32:06,1555399
2025-09-03 18:32:06,1555467
2025-09-03 18:32:06,1555500
2025-09-03 18:32:06,1555572
2025-09-03 18:32:06,1555633
2025-09-03 18:32:06,1555740
2025-09-03 18:32:06,1555851
2025-09-03 18:32:06,1555918
2025-09-03 18:32:06,1556031
2025-09-03 18:32:06,1556057
2025-09-03 18:32:06,1556113
2025-09-03 18:32:06,1556151
2025-09-03 18:32:06,1555986
2025-09-03 18:32:06,1555601
2025-09-03 18:32:06,1555127
2025-09-03 18:32:06,1554703
2025-09-03 18:32:06,1554316
2025-09-03 18:32:06,1554046
2025-09-03 18:32:06,1553690
2025-09-03 18:32:06,1553407
2025-09-03 18:32:06,1553191
2025-09-03 18:32:06,1553086
2025-09-03 18:32:06,1553121
2025-09-03 18:32:06,1553111
2025-09-03 18:32:06,1553153
2025-09-03 18:32:06,1553147
2025-09-03 18:32:06,1553279
2025-09-03 18:32:06,1553298
2025-09-03 18:32:06,1553341
2025-09-03 18:32:06,1553368
2025-09-03 18:32:06,1553232
2025-09-03 18:32:06,1553352
2025-09-03 18:32:06,1553360
2025-09-03 18:32:06,1553436
2025-09-03 18:32:06,1553564
2025-09-03 18:32:06,1553607
2025-09-03 18:32:06,1553544
2025-09-03 18:32:06,1553602
2025-09-03 18:32:06,1553535
2025-09-03 18:32:06,1553618
2025-09-03 18:32:06,1553490
2025-09-03 18:32:06,1553499
2025-09-03 18:32:06,1553403
2025-09-03 18:32:06,1553368
2025-09-03 18:32:06,1553355
2025-09-03 18:32:06,1553431
2025-09-03 18:32:06,1553393
2025-09-03 18:32:06,1553472
2025-09-03 18:32:06,1553520
2025-09-03 18:32:06,1553618
2025-09-03 18:32:06,1553614
2025-09-03 18:32:06,1553709
2025-09-03 18:32:06,1553763
2025-09-03 18:32:06,1553777
2025-09-03 18:32:06,1553855
2025-09-03 18:32:06,1553961
2025-09-03 18:32:06,1554003
2025-09-03 18:32:06,1554160
2025-09-03 18:32:07,1554099
2025-09-03 18:32:07,1554185
2025-09-03 18:32:07,1554257
2025-09-03 18:32:07,1554323
2025-09-03 18:32:07,1554338
2025-09-03 18:32:07,1554485
2025-09-03 18:32:07,1554528
2025-09-03 18:32:07,1554535
2025-09-03 18:32:07,1554657
2025-09-03 18:32:07,1554706
2025-09-03 18:32:07,1554798
2025-09-03 18:32:07,1554777
2025-09-03 18:32:07,1554821
2025-09-03 18:32:07,1554806
2025-09-03 18:32:07,1554712
2025-09-03 18:32:07,1554258
2025-09-03 18:32:07,1553853
2025-09-03 18:32:07,1553494
2025-09-03 18:32:07,1553044
2025-09-03 18:32:07,1552649
2025-09-03 18:32:07,1552327
2025-09-03 18:32:07,1551999
2025-09-03 18:32:07,1551943
2025-09-03 18:32:07,1551699
2025-09-03 18:32:07,1551809
2025-09-03 18:32:07,1551815
2025-09-03 18:32:07,1551869
2025-09-03 18:32:07,1551945
2025-09-03 18:32:07,1552067
2025-09-03 18:32:07,1552068
2025-09-03 18:32:07,1552096
2025-09-03 18:32:07,1552195
2025-09-03 18:32:07,1552314
2025-09-03 18:32:07,1552303
2025-09-03 18:32:07,1552324
2025-09-03 18:32:07,1552434
2025-09-03 18:32:07,1552399
2025-09-03 18:32:07,1552534
2025-09-03 18:32:07,1552485
2025-09-03 18:32:07,1552525
2025-09-03 18:32:07,1552483
2025-09-03 18:32:07,1552443
2025-09-03 18:32:07,1552499
2025-09-03 18:32:07,1552366
2025-09-03 18:32:07,1552375
2025-09-03 18:32:07,1552208
2025-09-03 18:32:07,1552349
2025-09-03 18:32:07,1552347
2025-09-03 18:32:07,1552324
2025-09-03 18:32:07,1552364
2025-09-03 18:32:07,1552340
2025-09-03 18:32:07,1552403
2025-09-03 18:32:07,1552549
2025-09-03 18:32:07,1552608
2025-09-03 18:32:07,1552523
2025-09-03 18:32:07,1552618
2025-09-03 18:32:07,1552703
2025-09-03 18:32:07,1552703
2025-09-03 18:32:07,1552718
2025-09-03 18:32:07,1552781
2025-09-03 18:32:07,1552950
2025-09-03 18:32:07,1553026
2025-09-03 18:32:07,1552916
2025-09-03 18:32:07,1553042
2025-09-03 18:32:07,1552982
2025-09-03 18:32:07,1553028
2025-09-03 18:32:07,1553137
2025-09-03 18:32:07,1553370
2025-09-03 18:32:07,1553244
2025-09-03 18:32:07,1553324
2025-09-03 18:32:07,1553410
2025-09-03 18:32:07,1553400
2025-09-03 18:32:07,1553376
2025-09-03 18:32:07,1553483
2025-09-03 18:32:07,1553303
2025-09-03 18:32:07,1553110
2025-09-03 18:32:07,1552757
2025-09-03 18:32:07,1552397
2025-09-03 18:32:07,1552054
2025-09-03 18:32:07,1551574
2025-09-03 18:32:07,1551229
2025-09-03 18:32:07,1550897
2025-09-03 18:32:07,1550811
2025-09-03 18:32:07,1550720
2025-09-03 18:32:07,1550706
2025-09-03 18:32:07,1550810
2025-09-03 18:32:07,1550856
2025-09-03 18:32:07,1550877
2025-09-03 18:32:07,1551075
2025-09-03 18:32:07,1551035
2025-09-03 18:32:07,1551138
2025-09-03 18:32:07,1551128
2025-09-03 18:32:07,1551300
2025-09-03 18:32:07,1551495
2025-09-03 18:32:07,1551452
2025-09-03 18:32:07,1551510
2025-09-03 18:32:07,1551554
2025-09-03 18:32:07,1551577
2025-09-03 18:32:07,1551553
2025-09-03 18:32:07,1551567
2025-09-03 18:32:08,1551555
2025-09-03 18:32:08,1551655
2025-09-03 18:32:08,1551562
2025-09-03 18:32:08,1551487
2025-09-03 18:32:08,1551527
2025-09-03 18:32:08,1551433
2025-09-03 18:32:08,1551414
2025-09-03 18:32:08,1551438
2025-09-03 18:32:08,1551438
2025-09-03 18:32:08,1551434
2025-09-03 18:32:08,1551491
2025-09-03 18:32:08,1551540
2025-09-03 18:32:08,1551575
2025-09-03 18:32:08,1551697
2025-09-03 18:32:08,1551705
2025-09-03 18:32:08,1551774
2025-09-03 18:32:08,1551879
2025-09-03 18:32:08,1551941
2025-09-03 18:32:08,1551907
2025-09-03 18:32:08,1551917
2025-09-03 18:32:08,1551924
2025-09-03 18:32:08,1551948
2025-09-03 18:32:08,1551993
2025-09-03 18:32:08,1552058
2025-09-03 18:32:08,1552027
2025-09-03 18:32:08,1552115
2025-09-03 18:32:08,1552259
2025-09-03 18:32:08,1552306
2025-09-03 18:32:08,1552260
2025-09-03 18:32:08,1552362
2025-09-03 18:32:08,1552459
2025-09-03 18:32:08,1552438
2025-09-03 18:32:08,1552467
2025-09-03 18:32:08,1552454
2025-09-03 18:32:08,1552370
2025-09-03 18:32:08,1551978
2025-09-03 18:32:08,1551550
2025-09-03 18:32:08,1551308
2025-09-03 18:32:08,1550809
2025-09-03 18:32:08,1550357
2025-09-03 18:32:08,1549901
2025-09-03 18:32:08,1549701
2025-09-03 18:32:08,1549529
2025-09-03 18:32:08,1549485
2025-09-03 18:32:08,1549561
2025-09-03 18:32:08,1549618
2025-09-03 18:32:08,1549608
2025-09-03 18:32:08,1549781
2025-09-03 18:32:08,1549821
2025-09-03 18:32:08,1549950
2025-09-03 18:32:08,1549976
2025-09-03 18:32:08,1549991
2025-09-03 18:32:08,1550050
2025-09-03 18:32:08,1550055
2025-09-03 18:32:08,1550073
2025-09-03 18:32:08,1550276
2025-09-03 18:32:08,1550168
2025-09-03 18:32:08,1550271
2025-09-03 18:32:08,1550321
2025-09-03 18:32:08,1550217
2025-09-03 18:32:08,1550239
2025-09-03 18:32:08,1550182
2025-09-03 18:32:08,1550148
2025-09-03 18:32:08,1550015
2025-09-03 18:32:08,1550026
2025-09-03 18:32:08,1549898
2025-09-03 18:32:08,1549989
2025-09-03 18:32:08,1549842
2025-09-03 18:32:08,1549892
2025-09-03 18:32:08,1549816
2025-09-03 18:32:08,1549962
2025-09-03 18:32:08,1550047
2025-09-03 18:32:08,1550058
2025-09-03 18:32:08,1550122
2025-09-03 18:32:08,1550230
2025-09-03 18:32:08,1550304
2025-09-03 18:32:08,1550307
2025-09-03 18:32:08,1550301
2025-09-03 18:32:08,1550262
2025-09-03 18:32:08,1550388
2025-09-03 18:32:08,1550339
2025-09-03 18:32:08,1550434
2025-09-03 18:32:08,1550522
2025-09-03 18:32:08,1550576
2025-09-03 18:32:08,1550448
2025-09-03 18:32:08,1550648
2025-09-03 18:32:08,1550632
2025-09-03 18:32:08,1550657
2025-09-03 18:32:08,1550743
2025-09-03 18:32:08,1550681
2025-09-03 18:32:08,1550711
2025-09-03 18:32:08,1550824
2025-09-03 18:32:08,1550822
2025-09-03 18:32:08,1550854
2025-09-03 18:32:08,1550830
2025-09-03 18:32:08,1550658
2025-09-03 18:32:08,1550167
2025-09-03 18:32:08,1549858
2025-09-03 18:32:08,1549342
2025-09-03 18:32:08,1548900
2025-09-03 18:32:09,1548374
2025-09-03 18:32:09,1548013
2025-09-03 18:32:09,1547703
2025-09-03 18:32:09,1547669
2025-09-03 18:32:09,1547546
2025-09-03 18:32:09,1547580
2025-09-03 18:32:09,1547554
2025-09-03 18:32:09,1547773
2025-09-03 18:32:09,1547744
2025-09-03 18:32:09,1547823
2025-09-03 18:32:09,1547834
2025-09-03 18:32:09,1547816
2025-09-03 18:32:09,1547876
2025-09-03 18:32:09,1547846
2025-09-03 18:32:09,1547858
2025-09-03 18:32:09,1547789
2025-09-03 18:32:09,1547936
2025-09-03 18:32:09,1548011
2025-09-03 18:32:09,1547909
2025-09-03 18:32:09,1547923
2025-09-03 18:32:09,1547949
2025-09-03 18:32:09,1547938
2025-09-03 18:32:09,1547992
2025-09-03 18:32:09,1547977
2025-09-03 18:32:09,1547782
2025-09-03 18:32:09,1547874
2025-09-03 18:32:09,1547864
2025-09-03 18:32:09,1547758
2025-09-03 18:32:09,1547804
2025-09-03 18:32:09,1547794
2025-09-03 18:32:09,1547785
2025-09-03 18:32:09,1547964
2025-09-03 18:32:09,1547874
2025-09-03 18:32:09,1547976
2025-09-03 18:32:09,1548051
2025-09-03 18:32:09,1548104
2025-09-03 18:32:09,1548151
2025-09-03 18:32:09,1548243
2025-09-03 18:32:09,1548198
2025-09-03 18:32:09,1548241
2025-09-03 18:32:09,1548368
2025-09-03 18:32:09,1548425
2025-09-03 18:32:09,1548493
2025-09-03 18:32:09,1548490
2025-09-03 18:32:09,1548598
2025-09-03 18:32:09,1548633
2025-09-03 18:32:09,1548730
2025-09-03 18:32:09,1548666
2025-09-03 18:32:09,1548666
2025-09-03 18:32:09,1548717
2025-09-03 18:32:09,1548692
2025-09-03 18:32:09,1548697
2025-09-03 18:32:09,1548843
2025-09-03 18:32:09,1548877
2025-09-03 18:32:09,1548902
2025-09-03 18:32:09,1548887
2025-09-03 18:32:09,1548965
2025-09-03 18:32:09,1548901
2025-09-03 18:32:09,1548801
2025-09-03 18:32:09,1548585
2025-09-03 18:32:09,1548213
2025-09-03 18:32:09,1547595
2025-09-03 18:32:09,1546965
2025-09-03 18:32:09,1546490
2025-09-03 18:32:09,1545980
2025-09-03 18:32:09,1545636
2025-09-03 18:32:09,1545433
2025-09-03 18:32:09,1545249
2025-09-03 18:32:09,1545226
2025-09-03 18:32:09,1545193
2025-09-03 18:32:09,1545225
2025-09-03 18:32:09,1545273
2025-09-03 18:32:09,1545275
2025-09-03 18:32:09,1545272
2025-09-03 18:32:09,1545314
2025-09-03 18:32:09,1545228
2025-09-03 18:32:09,1545082
2025-09-03 18:32:09,1545070
2025-09-03 18:32:09,1545069
2025-09-03 18:32:09,1545011
2025-09-03 18:32:09,1544942
2025-09-03 18:32:09,1545099
2025-09-03 18:32:09,1545152
2025-09-03 18:32:09,1545239
2025-09-03 18:32:09,1545277
2025-09-03 18:32:09,1545270
2025-09-03 18:32:09,1545186
2025-09-03 18:32:09,1545209
2025-09-03 18:32:09,1545187
2025-09-03 18:32:09,1545222
2025-09-03 18:32:09,1545149
2025-09-03 18:32:09,1545095
2025-09-03 18:32:09,1545143
2025-09-03 18:32:09,1545153
2025-09-03 18:32:09,1545250
2025-09-03 18:32:09,1545287
2025-09-03 18:32:09,1545262
2025-09-03 18:32:09,1545269
2025-09-03 18:32:09,1545375
2025-09-03 18:32:09,1545401
2025-09-03 18:32:10,1545421
2025-09-03 18:32:10,1545521
2025-09-03 18:32:10,1545588
2025-09-03 18:32:10,1545652
2025-09-03 18:32:10,1545706
2025-09-03 18:32:10,1545650
2025-09-03 18:32:10,1545692
2025-09-03 18:32:10,1545782
2025-09-03 18:32:10,1545825
2025-09-03 18:32:10,1545808
2025-09-03 18:32:10,1545954
2025-09-03 18:32:10,1545869
2025-09-03 18:32:10,1545881
2025-09-03 18:32:10,1545879
2025-09-03 18:32:10,1545938
2025-09-03 18:32:10,1545939
2025-09-03 18:32:10,1545969
2025-09-03 18:32:10,1545900
2025-09-03 18:32:10,1546057
2025-09-03 18:32:10,1546078
2025-09-03 18:32:10,1546088
2025-09-03 18:32:10,1545985
2025-09-03 18:32:10,1546080
2025-09-03 18:32:10,1546223
2025-09-03 18:32:10,1546351
2025-09-03 18:32:10,1546434
2025-09-03 18:32:10,1546385
2025-09-03 18:32:10,1546461
2025-09-03 18:32:10,1546532
2025-09-03 18:32:10,1546534
2025-09-03 18:32:10,1546526
2025-09-03 18:32:10,1546245
2025-09-03 18:32:10,1545804
2025-09-03 18:32:10,1545207
2025-09-03 18:32:10,1544592
2025-09-03 18:32:10,1543975
2025-09-03 18:32:10,1543511
2025-09-03 18:32:10,1543143
2025-09-03 18:32:10,1542848
2025-09-03 18:32:10,1542713
2025-09-03 18:32:10,1542726
2025-09-03 18:32:10,1542706
2025-09-03 18:32:10,1542757
2025-09-03 18:32:10,1542790
2025-09-03 18:32:10,1542765
2025-09-03 18:32:10,1542838
2025-09-03 18:32:10,1542837
2025-09-03 18:32:10,1542660
2025-09-03 18:32:10,1542603
2025-09-03 18:32:10,1542472
2025-09-03 18:32:10,1542450
2025-09-03 18:32:10,1542403
2025-09-03 18:32:10,1542611
2025-09-03 18:32:10,1542560
2025-09-03 18:32:10,1542681
2025-09-03 18:32:10,1542717
2025-09-03 18:32:10,1542716
2025-09-03 18:32:10,1542778
2025-09-03 18:32:10,1542807
2025-09-03 18:32:10,1542739
2025-09-03 18:32:10,1542679
2025-09-03 18:32:10,1542677
2025-09-03 18:32:10,1542697
2025-09-03 18:32:10,1542687
2025-09-03 18:32:10,1542652
2025-09-03 18:32:10,1542544
2025-09-03 18:32:10,1542667
2025-09-03 18:32:10,1542652
2025-09-03 18:32:10,1542745
2025-09-03 18:32:10,1542815
2025-09-03 18:32:10,1542807
2025-09-03 18:32:10,1542928
2025-09-03 18:32:10,1542896
2025-09-03 18:32:10,1543041
2025-09-03 18:32:10,1543061
2025-09-03 18:32:10,1543054
2025-09-03 18:32:10,1543178
2025-09-03 18:32:10,1543197
2025-09-03 18:32:10,1543260
2025-09-03 18:32:10,1543315
2025-09-03 18:32:10,1543347
2025-09-03 18:32:10,1543400
2025-09-03 18:32:10,1543384
2025-09-03 18:32:10,1543510
2025-09-03 18:32:10,1543432
2025-09-03 18:32:10,1543431
2025-09-03 18:32:10,1543541
2025-09-03 18:32:10,1543517
2025-09-03 18:32:10,1543497
2025-09-03 18:32:10,1543563
2025-09-03 18:32:10,1543577
2025-09-03 18:32:10,1543599
2025-09-03 18:32:10,1543714
2025-09-03 18:32:10,1543786
2025-09-03 18:32:10,1543769
2025-09-03 18:32:10,1543818
2025-09-03 18:32:10,1543872
2025-09-03 18:32:10,1543924
2025-09-03 18:32:10,1544028
2025-09-03 18:32:11,1544055
2025-09-03 18:32:11,1544048
2025-09-03 18:32:11,1544197
2025-09-03 18:32:11,1544122
2025-09-03 18:32:11,1544264
2025-09-03 18:32:11,1544253
2025-09-03 18:32:11,1544274
2025-09-03 18:32:11,1544123
2025-09-03 18:32:11,1543709
2025-09-03 18:32:11,1543211
2025-09-03 18:32:11,1542535
2025-09-03 18:32:11,1541945
2025-09-03 18:32:11,1541363
2025-09-03 18:32:11,1540969
2025-09-03 18:32:11,1540784
2025-09-03 18:32:11,1540510
2025-09-03 18:32:11,1540528
2025-09-03 18:32:11,1540609
2025-09-03 18:32:11,1540505
2025-09-03 18:32:11,1540622
2025-09-03 18:32:11,1540712
2025-09-03 18:32:11,1540709
2025-09-03 18:32:11,1540705
2025-09-03 18:32:11,1540720
2025-09-03 18:32:11,1540607
2025-09-03 18:32:11,1540582
2025-09-03 18:32:11,1540644
2025-09-03 18:32:11,1540577
2025-09-03 18:32:11,1540626
2025-09-03 18:32:11,1540639
2025-09-03 18:32:11,1540824
2025-09-03 18:32:11,1540847
2025-09-03 18:32:11,1540835
2025-09-03 18:32:11,1540905
2025-09-03 18:32:11,1540889
2025-09-03 18:32:11,1540796
2025-09-03 18:32:11,1540777
2025-09-03 18:32:11,1540848
2025-09-03 18:32:11,1540808
2025-09-03 18:32:11,1540811
2025-09-03 18:32:11,1540845
2025-09-03 18:32:11,1540823
2025-09-03 18:32:11,1540816
2025-09-03 18:32:11,1540925
2025-09-03 18:32:11,1540803
2025-09-03 18:32:11,1540938
2025-09-03 18:32:11,1541050
2025-09-03 18:32:11,1541040
2025-09-03 18:32:11,1541111
2025-09-03 18:32:11,1541173
2025-09-03 18:32:11,1541154
2025-09-03 18:32:11,1541218
2025-09-03 18:32:11,1541308
2025-09-03 18:32:11,1541322
2025-09-03 18:32:11,1541357
2025-09-03 18:32:11,1541447
2025-09-03 18:32:11,1541474
2025-09-03 18:32:11,1541571
2025-09-03 18:32:11,1541592
2025-09-03 18:32:11,1541552
2025-09-03 18:32:11,1541603
2025-09-03 18:32:11,1541529
2025-09-03 18:32:11,1541522
2025-09-03 18:32:11,1541519
2025-09-03 18:32:11,1541711
2025-09-03 18:32:11,1541777
2025-09-03 18:32:11,1541891
2025-09-03 18:32:11,1541758
2025-09-03 18:32:11,1541977
2025-09-03 18:32:11,1541994
2025-09-03 18:32:11,1542021
2025-09-03 18:32:11,1542082
2025-09-03 18:32:11,1541959
2025-09-03 18:32:11,1542126
2025-09-03 18:32:11,1542250
2025-09-03 18:32:11,1542276
2025-09-03 18:32:11,1542309
2025-09-03 18:32:11,1542297
2025-09-03 18:32:11,1542340
2025-09-03 18:32:11,1542390
2025-09-03 18:32:11,1542553
2025-09-03 18:32:11,1542569
2025-09-03 18:32:11,1542416
2025-09-03 18:32:11,1542206
2025-09-03 18:32:11,1541735
2025-09-03 18:32:11,1541208
2025-09-03 18:32:11,1540508
2025-09-03 18:32:11,1539865
2025-09-03 18:32:11,1539340
2025-09-03 18:32:11,1538868
2025-09-03 18:32:11,1538768
2025-09-03 18:32:11,1538724
2025-09-03 18:32:11,1539131
2025-09-03 18:32:11,1539320
2025-09-03 18:32:11,1539541
2025-09-03 18:32:11,1539521
2025-09-03 18:32:11,1539514
2025-09-03 18:32:11,1539557
2025-09-03 18:32:11,1539742
2025-09-03 18:32:11,1539767
2025-09-03 18:32:12,1539915
2025-09-03 18:32:12,1539851
2025-09-03 18:32:12,1539840
2025-09-03 18:32:12,1539863
2025-09-03 18:32:12,1539891
2025-09-03 18:32:12,1539964
2025-09-03 18:32:12,1539940
2025-09-03 18:32:12,1539866
2025-09-03 18:32:12,1539885
2025-09-03 18:32:12,1539932
2025-09-03 18:32:12,1539887
2025-09-03 18:32:12,1539916
2025-09-03 18:32:12,1539911
2025-09-03 18:32:12,1539945
2025-09-03 18:32:12,1539993
2025-09-03 18:32:12,1539897
2025-09-03 18:32:12,1539784
2025-09-03 18:32:12,1539738
2025-09-03 18:32:12,1539884
2025-09-03 18:32:12,1540013
2025-09-03 18:32:12,1540044
2025-09-03 18:32:12,1540166
2025-09-03 18:32:12,1540214
2025-09-03 18:32:12,1540239
2025-09-03 18:32:12,1540241
2025-09-03 18:32:12,1540260
2025-09-03 18:32:12,1540249
2025-09-03 18:32:12,1540388
2025-09-03 18:32:12,1540524
2025-09-03 18:32:12,1540587
2025-09-03 18:32:12,1540700
2025-09-03 18:32:12,1540747
2025-09-03 18:32:12,1540796
2025-09-03 18:32:12,1540726
2025-09-03 18:32:12,1540785
2025-09-03 18:32:12,1540796
2025-09-03 18:32:12,1540878
2025-09-03 18:32:12,1540929
2025-09-03 18:32:12,1541024
2025-09-03 18:32:12,1541134
2025-09-03 18:32:12,1541172
2025-09-03 18:32:12,1541067
2025-09-03 18:32:12,1541020
2025-09-03 18:32:12,1541040
2025-09-03 18:32:12,1541127
2025-09-03 18:32:12,1541228
2025-09-03 18:32:12,1541237
2025-09-03 18:32:12,1541362
2025-09-03 18:32:12,1541341
2025-09-03 18:32:12,1541415
2025-09-03 18:32:12,1541434
2025-09-03 18:32:12,1541623
2025-09-03 18:32:12,1541587
2025-09-03 18:32:12,1541690
2025-09-03 18:32:12,1541758
2025-09-03 18:32:12,1541597
2025-09-03 18:32:12,1541117
2025-09-03 18:32:12,1540611
2025-09-03 18:32:12,1539957
2025-09-03 18:32:12,1539276
2025-09-03 18:32:12,1538797
2025-09-03 18:32:12,1538498
2025-09-03 18:32:12,1538337
2025-09-03 18:32:12,1538260
2025-09-03 18:32:12,1538265
2025-09-03 18:32:12,1538338
2025-09-03 18:32:12,1538510
2025-09-03 18:32:12,1538611
2025-09-03 18:32:12,1538744
2025-09-03 18:32:12,1538800
2025-09-03 18:32:12,1538944
2025-09-03 18:32:12,1538917
2025-09-03 18:32:12,1539009
2025-09-03 18:32:12,1539096
2025-09-03 18:32:12,1538993
2025-09-03 18:32:12,1539040
2025-09-03 18:32:12,1539193
2025-09-03 18:32:12,1539268
2025-09-03 18:32:12,1539419
2025-09-03 18:32:12,1539430
2025-09-03 18:32:12,1539408
2025-09-03 18:32:12,1539420
2025-09-03 18:32:12,1539444
2025-09-03 18:32:12,1539332
2025-09-03 18:32:12,1539403
2025-09-03 18:32:12,1539326
2025-09-03 18:32:12,1539277
2025-09-03 18:32:12,1539312
2025-09-03 18:32:12,1539453
2025-09-03 18:32:12,1539376
2025-09-03 18:32:12,1539471
2025-09-03 18:32:12,1539400
2025-09-03 18:32:12,1539511
2025-09-03 18:32:12,1539582
2025-09-03 18:32:12,1539750
2025-09-03 18:32:12,1539742
2025-09-03 18:32:12,1539794
2025-09-03 18:32:12,1539885
2025-09-03 18:32:12,1540016
2025-09-03 18:32:12,1540039
2025-09-03 18:32:13,1540142
2025-09-03 18:32:13,1540078
2025-09-03 18:32:13,1540220
2025-09-03 18:32:13,1540372
2025-09-03 18:32:13,1540331
2025-09-03 18:32:13,1540423
2025-09-03 18:32:13,1540616
2025-09-03 18:32:13,1540626
2025-09-03 18:32:13,1540657
2025-09-03 18:32:13,1540724
2025-09-03 18:32:13,1540762
2025-09-03 18:32:13,1540780
2025-09-03 18:32:13,1540980
2025-09-03 18:32:13,1540934
2025-09-03 18:32:13,1540927
2025-09-03 18:32:13,1541041
2025-09-03 18:32:13,1541040
2025-09-03 18:32:13,1541143
2025-09-03 18:32:13,1541254
2025-09-03 18:32:13,1541250
2025-09-03 18:32:13,1541270
2025-09-03 18:32:13,1541437
2025-09-03 18:32:13,1541501
2025-09-03 18:32:13,1541601
2025-09-03 18:32:13,1541580
2025-09-03 18:32:13,1541525
2025-09-03 18:32:13,1541231
2025-09-03 18:32:13,1540645
2025-09-03 18:32:13,1540232
2025-09-03 18:32:13,1539601
2025-09-03 18:32:13,1538919
2025-09-03 18:32:13,1538443
2025-09-03 18:32:13,1538047
2025-09-03 18:32:13,1537830
2025-09-03 18:32:13,1537720
2025-09-03 18:32:13,1537760
2025-09-03 18:32:13,1537818
2025-09-03 18:32:13,1537867
2025-09-03 18:32:13,1538128
2025-09-03 18:32:13,1538197
2025-09-03 18:32:13,1538218
2025-09-03 18:32:13,1538245
2025-09-03 18:32:13,1538179
2025-09-03 18:32:13,1538236
2025-09-03 18:32:13,1538247
2025-09-03 18:32:13,1538277
2025-09-03 18:32:13,1538354
2025-09-03 18:32:13,1538360
2025-09-03 18:32:13,1538457
2025-09-03 18:32:13,1538558
2025-09-03 18:32:13,1538623
2025-09-03 18:32:13,1538612
2025-09-03 18:32:13,1538560
2025-09-03 18:32:13,1538591
2025-09-03 18:32:13,1538540
2025-09-03 18:32:13,1538635
2025-09-03 18:32:13,1538582
2025-09-03 18:32:13,1538665
2025-09-03 18:32:13,1538635
2025-09-03 18:32:13,1538615
2025-09-03 18:32:13,1538668
2025-09-03 18:32:13,1538735
2025-09-03 18:32:13,1538750
2025-09-03 18:32:13,1538753
2025-09-03 18:32:13,1538776
2025-09-03 18:32:13,1538982
2025-09-03 18:32:13,1539114
2025-09-03 18:32:13,1538987
2025-09-03 18:32:13,1539090
2025-09-03 18:32:13,1539272
2025-09-03 18:32:13,1539268
2025-09-03 18:32:13,1539390
2025-09-03 18:32:13,1539400
2025-09-03 18:32:13,1539589
2025-09-03 18:32:13,1539617
2025-09-03 18:32:13,1539715
2025-09-03 18:32:13,1539781
2025-09-03 18:32:13,1539863
2025-09-03 18:32:13,1539863
2025-09-03 18:32:13,1539959
2025-09-03 18:32:13,1540105
2025-09-03 18:32:13,1540128
2025-09-03 18:32:13,1540123
2025-09-03 18:32:13,1540179
2025-09-03 18:32:13,1540292
2025-09-03 18:32:13,1540341
2025-09-03 18:32:13,1540394
2025-09-03 18:32:13,1540380
2025-09-03 18:32:13,1540459
2025-09-03 18:32:13,1540522
2025-09-03 18:32:13,1540589
2025-09-03 18:32:13,1540656
2025-09-03 18:32:13,1540821
2025-09-03 18:32:13,1540933
2025-09-03 18:32:13,1540992
2025-09-03 18:32:13,1541023
2025-09-03 18:32:13,1541120
2025-09-03 18:32:13,1541216
2025-09-03 18:32:13,1541281
2025-09-03 18:32:13,1541038
2025-09-03 18:32:14,1540618
2025-09-03 18:32:14,1540084
2025-09-03 18:32:14,1539485
2025-09-03 18:32:14,1538733
2025-09-03 18:32:14,1538055
2025-09-03 18:32:14,1537641
2025-09-03 18:32:14,1537347
2025-09-03 18:32:14,1537082
2025-09-03 18:32:14,1537063
2025-09-03 18:32:14,1537142
2025-09-03 18:32:14,1537149
2025-09-03 18:32:14,1537287
2025-09-03 18:32:14,1537392
2025-09-03 18:32:14,1537500
2025-09-03 18:32:14,1537587
2025-09-03 18:32:14,1537477
2025-09-03 18:32:14,1537492
2025-09-03 18:32:14,1537523
2025-09-03 18:32:14,1537520
2025-09-03 18:32:14,1537523
2025-09-03 18:32:14,1537505
2025-09-03 18:32:14,1537496
2025-09-03 18:32:14,1537611
2025-09-03 18:32:14,1537770
2025-09-03 18:32:14,1537778
2025-09-03 18:32:14,1537775
2025-09-03 18:32:14,1537831
2025-09-03 18:32:14,1537743
2025-09-03 18:32:14,1537736
2025-09-03 18:32:14,1537853
2025-09-03 18:32:14,1537851
2025-09-03 18:32:14,1537828
2025-09-03 18:32:14,1537969
2025-09-03 18:32:14,1537989
2025-09-03 18:32:14,1537861
2025-09-03 18:32:14,1537971
2025-09-03 18:32:14,1537888
2025-09-03 18:32:14,1538089
2025-09-03 18:32:14,1538090
2025-09-03 18:32:14,1538188
2025-09-03 18:32:14,1538118
2025-09-03 18:32:14,1538339
2025-09-03 18:32:14,1538268
2025-09-03 18:32:14,1538406
2025-09-03 18:32:14,1538470
2025-09-03 18:32:14,1538555
2025-09-03 18:32:14,1538557
2025-09-03 18:32:14,1538665
2025-09-03 18:32:14,1538809
2025-09-03 18:32:14,1538836
2025-09-03 18:32:14,1538879
2025-09-03 18:32:14,1538895
2025-09-03 18:32:14,1539045
2025-09-03 18:32:14,1539049
2025-09-03 18:32:14,1539200
2025-09-03 18:32:14,1539238
2025-09-03 18:32:14,1539304
2025-09-03 18:32:14,1539253
2025-09-03 18:32:14,1539255
2025-09-03 18:32:14,1539414
2025-09-03 18:32:14,1539499
2025-09-03 18:32:14,1539537
2025-09-03 18:32:14,1539629
2025-09-03 18:32:14,1539798
2025-09-03 18:32:14,1539792
2025-09-03 18:32:14,1539921
2025-09-03 18:32:14,1540061
2025-09-03 18:32:14,1540148
2025-09-03 18:32:14,1540288
2025-09-03 18:32:14,1540384
2025-09-03 18:32:14,1540448
2025-09-03 18:32:14,1540495
2025-09-03 18:32:14,1540547
2025-09-03 18:32:14,1540286
2025-09-03 18:32:14,1539787
2025-09-03 18:32:14,1539243
2025-09-03 18:32:14,1538740
2025-09-03 18:32:14,1538049
2025-09-03 18:32:14,1537505
2025-09-03 18:32:14,1536936
2025-09-03 18:32:14,1536645
2025-09-03 18:32:14,1536591
2025-09-03 18:32:14,1536493
2025-09-03 18:32:14,1536560
2025-09-03 18:32:14,1536732
2025-09-03 18:32:14,1536740
2025-09-03 18:32:14,1536901
2025-09-03 18:32:14,1537070
2025-09-03 18:32:14,1537135
2025-09-03 18:32:14,1537131
2025-09-03 18:32:14,1537154
2025-09-03 18:32:14,1537212
2025-09-03 18:32:14,1537260
2025-09-03 18:32:14,1537268
2025-09-03 18:32:14,1537292
2025-09-03 18:32:14,1537342
2025-09-03 18:32:14,1537363
2025-09-03 18:32:14,1537528
2025-09-03 18:32:14,1537544
2025-09-03 18:32:14,1537703
2025-09-03 18:32:15,1537569
2025-09-03 18:32:15,1537590
2025-09-03 18:32:15,1537590
2025-09-03 18:32:15,1537598
2025-09-03 18:32:15,1537600
2025-09-03 18:32:15,1537574
2025-09-03 18:32:15,1537512
2025-09-03 18:32:15,1537618
2025-09-03 18:32:15,1537814
2025-09-03 18:32:15,1537828
2025-09-03 18:32:15,1537796
2025-09-03 18:32:15,1537923
2025-09-03 18:32:15,1537929
2025-09-03 18:32:15,1538039
2025-09-03 18:32:15,1538134
2025-09-03 18:32:15,1538108
2025-09-03 18:32:15,1538260
2025-09-03 18:32:15,1538280
2025-09-03 18:32:15,1538438
2025-09-03 18:32:15,1538462
2025-09-03 18:32:15,1538626
2025-09-03 18:32:15,1538655
2025-09-03 18:32:15,1538778
2025-09-03 18:32:15,1538881
2025-09-03 18:32:15,1538858
2025-09-03 18:32:15,1539038
2025-09-03 18:32:15,1539082
2025-09-03 18:32:15,1539137
2025-09-03 18:32:15,1539239
2025-09-03 18:32:15,1539295
2025-09-03 18:32:15,1539253
2025-09-03 18:32:15,1539361
2025-09-03 18:32:15,1539524
2025-09-03 18:32:15,1539547
2025-09-03 18:32:15,1539706
2025-09-03 18:32:15,1539682
2025-09-03 18:32:15,1539633
2025-09-03 18:32:15,1539877
2025-09-03 18:32:15,1539984
2025-09-03 18:32:15,1540016
2025-09-03 18:32:15,1540226
2025-09-03 18:32:15,1540220
2025-09-03 18:32:15,1540411
2025-09-03 18:32:15,1540508
2025-09-03 18:32:15,1540592
2025-09-03 18:32:15,1540633
2025-09-03 18:32:15,1540627
2025-09-03 18:32:15,1540341
2025-09-03 18:32:15,1539664
2025-09-03 18:32:15,1539227
2025-09-03 18:32:15,1538607
2025-09-03 18:32:15,1537930
2025-09-03 18:32:15,1537395
2025-09-03 18:32:15,1536980
2025-09-03 18:32:15,1536788
2025-09-03 18:32:15,1536687
2025-09-03 18:32:15,1536671
2025-09-03 18:32:15,1536869
2025-09-03 18:32:15,1536873
2025-09-03 18:32:15,1537097
2025-09-03 18:32:15,1537123
2025-09-03 18:32:15,1537246
2025-09-03 18:32:15,1537280
2025-09-03 18:32:15,1537394
2025-09-03 18:32:15,1537426
2025-09-03 18:32:15,1537532
2025-09-03 18:32:15,1537536
2025-09-03 18:32:15,1537626
2025-09-03 18:32:15,1537577
2025-09-03 18:32:15,1537727
2025-09-03 18:32:15,1537828
2025-09-03 18:32:15,1537778
2025-09-03 18:32:15,1537874
2025-09-03 18:32:15,1537860
2025-09-03 18:32:15,1537804
2025-09-03 18:32:15,1537973
2025-09-03 18:32:15,1537845
2025-09-03 18:32:15,1537759
2025-09-03 18:32:15,1537812
2025-09-03 18:32:15,1537794
2025-09-03 18:32:15,1537850
2025-09-03 18:32:15,1537887
2025-09-03 18:32:15,1537899
2025-09-03 18:32:15,1537996
2025-09-03 18:32:15,1538052
2025-09-03 18:32:15,1538170
2025-09-03 18:32:15,1538211
2025-09-03 18:32:15,1538344
2025-09-03 18:32:15,1538356
2025-09-03 18:32:15,1538463
2025-09-03 18:32:15,1538546
2025-09-03 18:32:15,1538635
2025-09-03 18:32:15,1538720
2025-09-03 18:32:15,1538890
2025-09-03 18:32:15,1539010
2025-09-03 18:32:15,1539088
2025-09-03 18:32:15,1539076
2025-09-03 18:32:15,1539221
2025-09-03 18:32:15,1539390
2025-09-03 18:32:15,1539392
2025-09-03 18:32:16,1539498
2025-09-03 18:32:16,1539540
2025-09-03 18:32:16,1539653
2025-09-03 18:32:16,1539673
2025-09-03 18:32:16,1539756
2025-09-03 18:32:16,1539880
2025-09-03 18:32:16,1539976
2025-09-03 18:32:16,1540064
2025-09-03 18:32:16,1540074
2025-09-03 18:32:16,1540097
2025-09-03 18:32:16,1540312
2025-09-03 18:32:16,1540300
2025-09-03 18:32:16,1540443
2025-09-03 18:32:16,1540599
2025-09-03 18:32:16,1540723
2025-09-03 18:32:16,1540702
2025-09-03 18:32:16,1540903
2025-09-03 18:32:16,1540868
2025-09-03 18:32:16,1540971
2025-09-03 18:32:16,1540743
2025-09-03 18:32:16,1540232
2025-09-03 18:32:16,1539841
2025-09-03 18:32:16,1539354
2025-09-03 18:32:16,1538799
2025-09-03 18:32:16,1538184
2025-09-03 18:32:16,1537596
2025-09-03 18:32:16,1537287
2025-09-03 18:32:16,1537133
2025-09-03 18:32:16,1537059
2025-09-03 18:32:16,1537064
2025-09-03 18:32:16,1537114
2025-09-03 18:32:16,1537311
2025-09-03 18:32:16,1537393
2025-09-03 18:32:16,1537499
2025-09-03 18:32:16,1537537
2025-09-03 18:32:16,1537628
2025-09-03 18:32:16,1537758
2025-09-03 18:32:16,1537818
2025-09-03 18:32:16,1537863
2025-09-03 18:32:16,1537906
2025-09-03 18:32:16,1537987
2025-09-03 18:32:16,1538096
2025-09-03 18:32:16,1538224
2025-09-03 18:32:16,1538256
2025-09-03 18:32:16,1538302
2025-09-03 18:32:16,1538314
2025-09-03 18:32:16,1538243
2025-09-03 18:32:16,1538226
2025-09-03 18:32:16,1538238
2025-09-03 18:32:16,1538193
2025-09-03 18:32:16,1538124
2025-09-03 18:32:16,1538132
2025-09-03 18:32:16,1538239
2025-09-03 18:32:16,1538166
2025-09-03 18:32:16,1538263
2025-09-03 18:32:16,1538278
2025-09-03 18:32:16,1538461
2025-09-03 18:32:16,1538384
2025-09-03 18:32:16,1538489
2025-09-03 18:32:16,1538593
2025-09-03 18:32:16,1538661
2025-09-03 18:32:16,1538732
2025-09-03 18:32:16,1538991
2025-09-03 18:32:16,1539034
2025-09-03 18:32:16,1539144
2025-09-03 18:32:16,1539210
2025-09-03 18:32:16,1539313
2025-09-03 18:32:16,1539522
2025-09-03 18:32:16,1539630
2025-09-03 18:32:16,1539778
2025-09-03 18:32:16,1539938
2025-09-03 18:32:16,1539994
2025-09-03 18:32:16,1540155
2025-09-03 18:32:16,1540158
2025-09-03 18:32:16,1540281
2025-09-03 18:32:16,1540389
2025-09-03 18:32:16,1540385
2025-09-03 18:32:16,1540402
2025-09-03 18:32:16,1540610
2025-09-03 18:32:16,1540611
2025-09-03 18:32:16,1540613
2025-09-03 18:32:16,1540772
2025-09-03 18:32:16,1540951
2025-09-03 18:32:16,1541022
2025-09-03 18:32:16,1541041
2025-09-03 18:32:16,1541031
2025-09-03 18:32:16,1541187
2025-09-03 18:32:16,1541261
2025-09-03 18:32:16,1541337
2025-09-03 18:32:16,1541495
2025-09-03 18:32:16,1541399
2025-09-03 18:32:16,1541030
2025-09-03 18:32:16,1540490
2025-09-03 18:32:16,1540022
2025-09-03 18:32:16,1539622
2025-09-03 18:32:16,1539077
2025-09-03 18:32:16,1538535
2025-09-03 18:32:16,1538050
2025-09-03 18:32:16,1537876
2025-09-03 18:32:16,1537625
2025-09-03 18:32:17,1537595
2025-09-03 18:32:17,1537771
2025-09-03 18:32:17,1537758
2025-09-03 18:32:17,1537905
2025-09-03 18:32:17,1538035
2025-09-03 18:32:17,1538126
2025-09-03 18:32:17,1538366
2025-09-03 18:32:17,1538426
2025-09-03 18:32:17,1538396
2025-09-03 18:32:17,1538618
2025-09-03 18:32:17,1538775
2025-09-03 18:32:17,1538808
2025-09-03 18:32:17,1538858
2025-09-03 18:32:17,1539046
2025-09-03 18:32:17,1539016
2025-09-03 18:32:17,1539183
2025-09-03 18:32:17,1539243
2025-09-03 18:32:17,1539236
2025-09-03 18:32:17,1539151
2025-09-03 18:32:17,1539208
2025-09-03 18:32:17,1539202
2025-09-03 18:32:17,1539081
2025-09-03 18:32:17,1539004
2025-09-03 18:32:17,1539053
2025-09-03 18:32:17,1539035
2025-09-03 18:32:17,1538982
2025-09-03 18:32:17,1539063
2025-09-03 18:32:17,1539136
2025-09-03 18:32:17,1539195
2025-09-03 18:32:17,1539238
2025-09-03 18:32:17,1539248
2025-09-03 18:32:17,1539456
2025-09-03 18:32:17,1539488
2025-09-03 18:32:17,1539651
2025-09-03 18:32:17,1539731
2025-09-03 18:32:17,1540019
2025-09-03 18:32:17,1540052
2025-09-03 18:32:17,1540204
2025-09-03 18:32:17,1540274
2025-09-03 18:32:17,1540339
2025-09-03 18:32:17,1540470
2025-09-03 18:32:17,1540508
2025-09-03 18:32:17,1540606
2025-09-03 18:32:17,1540711
2025-09-03 18:32:17,1540862
2025-09-03 18:32:17,1540930
2025-09-03 18:32:17,1540903
2025-09-03 18:32:17,1540957
2025-09-03 18:32:17,1541029
2025-09-03 18:32:17,1541230
2025-09-03 18:32:17,1541228
2025-09-03 18:32:17,1541297
2025-09-03 18:32:17,1541324
2025-09-03 18:32:17,1541502
2025-09-03 18:32:17,1541556
2025-09-03 18:32:17,1541654
2025-09-03 18:32:17,1541744
2025-09-03 18:32:17,1541870
2025-09-03 18:32:17,1541679
2025-09-03 18:32:17,1541292
2025-09-03 18:32:17,1540888
2025-09-03 18:32:17,1540311
2025-09-03 18:32:17,1539915
2025-09-03 18:32:17,1539376
2025-09-03 18:32:17,1539022
2025-09-03 18:32:17,1538621
2025-09-03 18:32:17,1538238
2025-09-03 18:32:17,1538131
2025-09-03 18:32:17,1538121
2025-09-03 18:32:17,1538158
2025-09-03 18:32:17,1538191
2025-09-03 18:32:17,1538381
2025-09-03 18:32:17,1538500
2025-09-03 18:32:17,1538644
2025-09-03 18:32:17,1538591
2025-09-03 18:32:17,1538793
2025-09-03 18:32:17,1538922
2025-09-03 18:32:17,1538931
2025-09-03 18:32:17,1539159
2025-09-03 18:32:17,1539352
2025-09-03 18:32:17,1539323
2025-09-03 18:32:17,1539479
2025-09-03 18:32:17,1539575
2025-09-03 18:32:17,1539656
2025-09-03 18:32:17,1539651
2025-09-03 18:32:17,1539661
2025-09-03 18:32:17,1539536
2025-09-03 18:32:17,1539511
2025-09-03 18:32:17,1539422
2025-09-03 18:32:17,1539403
2025-09-03 18:32:17,1539271
2025-09-03 18:32:17,1539258
2025-09-03 18:32:17,1539263
2025-09-03 18:32:17,1539381
2025-09-03 18:32:17,1539409
2025-09-03 18:32:17,1539386
2025-09-03 18:32:17,1539480
2025-09-03 18:32:17,1539544
2025-09-03 18:32:17,1539659
2025-09-03 18:32:17,1539635
2025-09-03 18:32:18,1539775
2025-09-03 18:32:18,1539824
2025-09-03 18:32:18,1540027
2025-09-03 18:32:18,1540090
2025-09-03 18:32:18,1540258
2025-09-03 18:32:18,1540398
2025-09-03 18:32:18,1540415
2025-09-03 18:32:18,1540528
2025-09-03 18:32:18,1540740
2025-09-03 18:32:18,1540895
2025-09-03 18:32:18,1540931
2025-09-03 18:32:18,1541095
2025-09-03 18:32:18,1541072
2025-09-03 18:32:18,1541075
2025-09-03 18:32:18,1541245
2025-09-03 18:32:18,1541281
2025-09-03 18:32:18,1541464
2025-09-03 18:32:18,1541482
2025-09-03 18:32:18,1541523
2025-09-03 18:32:18,1541585
2025-09-03 18:32:18,1541762
2025-09-03 18:32:18,1541833
2025-09-03 18:32:18,1541872
2025-09-03 18:32:18,1541859
2025-09-03 18:32:18,1541596
2025-09-03 18:32:18,1541029
2025-09-03 18:32:18,1540655
2025-09-03 18:32:18,1540067
2025-09-03 18:32:18,1539490
2025-09-03 18:32:18,1538881
2025-09-03 18:32:18,1538315
2025-09-03 18:32:18,1537884
2025-09-03 18:32:18,1537793
2025-09-03 18:32:18,1537628
2025-09-03 18:32:18,1537614
2025-09-03 18:32:18,1537711
2025-09-03 18:32:18,1537798
2025-09-03 18:32:18,1537915
2025-09-03 18:32:18,1537915
2025-09-03 18:32:18,1538129
2025-09-03 18:32:18,1538173
2025-09-03 18:32:18,1538255
2025-09-03 18:32:18,1538286
2025-09-03 18:32:18,1538411
2025-09-03 18:32:18,1538453
2025-09-03 18:32:18,1538501
2025-09-03 18:32:18,1538617
2025-09-03 18:32:18,1538812
2025-09-03 18:32:18,1538760
2025-09-03 18:32:18,1538838
2025-09-03 18:32:18,1538791
2025-09-03 18:32:18,1538794
2025-09-03 18:32:18,1538641
2025-09-03 18:32:18,1538685
2025-09-03 18:32:18,1538595
2025-09-03 18:32:18,1538681
2025-09-03 18:32:18,1538520
2025-09-03 18:32:18,1538609
2025-09-03 18:32:18,1538548
2025-09-03 18:32:18,1538600
2025-09-03 18:32:18,1538616
2025-09-03 18:32:18,1538621
2025-09-03 18:32:18,1538691
2025-09-03 18:32:18,1538768
2025-09-03 18:32:18,1538845
2025-09-03 18:32:18,1538957
2025-09-03 18:32:18,1539051
2025-09-03 18:32:18,1539181
2025-09-03 18:32:18,1539198
2025-09-03 18:32:18,1539352
2025-09-03 18:32:18,1539487
2025-09-03 18:32:18,1539500
2025-09-03 18:32:18,1539667
2025-09-03 18:32:18,1539785
2025-09-03 18:32:18,1539918
2025-09-03 18:32:18,1539994
2025-09-03 18:32:18,1540029
2025-09-03 18:32:18,1540118
2025-09-03 18:32:18,1540155
2025-09-03 18:32:18,1540303
2025-09-03 18:32:18,1540379
2025-09-03 18:32:18,1540385
2025-09-03 18:32:18,1540482
2025-09-03 18:32:18,1540548
2025-09-03 18:32:18,1540589
2025-09-03 18:32:18,1540710
2025-09-03 18:32:18,1540807
2025-09-03 18:32:18,1540645
2025-09-03 18:32:18,1540441
2025-09-03 18:32:18,1539814
2025-09-03 18:32:18,1539265
2025-09-03 18:32:18,1538582
2025-09-03 18:32:18,1537904
2025-09-03 18:32:18,1537293
2025-09-03 18:32:18,1536769
2025-09-03 18:32:18,1536419
2025-09-03 18:32:18,1536073
2025-09-03 18:32:18,1536199
2025-09-03 18:32:18,1536117
2025-09-03 18:32:18,1536302
2025-09-03 18:32:19,1536357
2025-09-03 18:32:19,1536465
2025-09-03 18:32:19,1536431
2025-09-03 18:32:19,1536474
2025-09-03 18:32:19,1536548
2025-09-03 18:32:19,1536544
2025-09-03 18:32:19,1536624
2025-09-03 18:32:19,1536510
2025-09-03 18:32:19,1536699
2025-09-03 18:32:19,1536761
2025-09-03 18:32:19,1536815
2025-09-03 18:32:19,1536886
2025-09-03 18:32:19,1536924
2025-09-03 18:32:19,1536965
2025-09-03 18:32:19,1536908
2025-09-03 18:32:19,1536894
2025-09-03 18:32:19,1536818
2025-09-03 18:32:19,1536805
2025-09-03 18:32:19,1536676
2025-09-03 18:32:19,1536682
2025-09-03 18:32:19,1536619
2025-09-03 18:32:19,1536597
2025-09-03 18:32:19,1536642
2025-09-03 18:32:19,1536702
2025-09-03 18:32:19,1536694
2025-09-03 18:32:19,1536747
2025-09-03 18:32:19,1536941
2025-09-03 18:32:19,1536958
2025-09-03 18:32:19,1537030
2025-09-03 18:32:19,1537133
2025-09-03 18:32:19,1537121
2025-09-03 18:32:19,1537151
2025-09-03 18:32:19,1537139
2025-09-03 18:32:19,1537342
2025-09-03 18:32:19,1537476
2025-09-03 18:32:19,1537499
2025-09-03 18:32:19,1537479
2025-09-03 18:32:19,1537597
2025-09-03 18:32:19,1537773
2025-09-03 18:32:19,1537759
2025-09-03 18:32:19,1537912
2025-09-03 18:32:19,1537884
2025-09-03 18:32:19,1537880
2025-09-03 18:32:19,1537899
2025-09-03 18:32:19,1537914
2025-09-03 18:32:19,1538051
2025-09-03 18:32:19,1538064
2025-09-03 18:32:19,1538133
2025-09-03 18:32:19,1538203
2025-09-03 18:32:19,1538170
2025-09-03 18:32:19,1538333
2025-09-03 18:32:19,1538433
2025-09-03 18:32:19,1538124
2025-09-03 18:32:19,1537781
2025-09-03 18:32:19,1537324
2025-09-03 18:32:19,1536540
2025-09-03 18:32:19,1535721
2025-09-03 18:32:19,1534928
2025-09-03 18:32:19,1534436
2025-09-03 18:32:19,1533975
2025-09-03 18:32:19,1533693
2025-09-03 18:32:19,1533625
2025-09-03 18:32:19,1533663
2025-09-03 18:32:19,1533720
2025-09-03 18:32:19,1533774
2025-09-03 18:32:19,1533846
2025-09-03 18:32:19,1533967
2025-09-03 18:32:19,1533980
2025-09-03 18:32:19,1533971
2025-09-03 18:32:19,1534062
2025-09-03 18:32:19,1533984
2025-09-03 18:32:19,1533987
2025-09-03 18:32:19,1533985
2025-09-03 18:32:19,1534114
2025-09-03 18:32:19,1534089
2025-09-03 18:32:19,1534130
2025-09-03 18:32:19,1534133
2025-09-03 18:32:19,1534145
2025-09-03 18:32:19,1534070
2025-09-03 18:32:19,1534068
2025-09-03 18:32:19,1533968
2025-09-03 18:32:19,1533953
2025-09-03 18:32:19,1533899
2025-09-03 18:32:19,1533913
2025-09-03 18:32:19,1533840
2025-09-03 18:32:19,1533764
2025-09-03 18:32:19,1533793
2025-09-03 18:32:19,1533720
2025-09-03 18:32:19,1533897
2025-09-03 18:32:19,1533923
2025-09-03 18:32:19,1533889
2025-09-03 18:32:19,1533937
2025-09-03 18:32:19,1534055
2025-09-03 18:32:19,1534102
2025-09-03 18:32:19,1534066
2025-09-03 18:32:19,1534227
2025-09-03 18:32:19,1534386
2025-09-03 18:32:19,1534384
2025-09-03 18:32:19,1534468
2025-09-03 18:32:19,1534411
2025-09-03 18:32:20,1534369
2025-09-03 18:32:20,1534634
2025-09-03 18:32:20,1534626
2025-09-03 18:32:20,1534701
2025-09-03 18:32:20,1534730
2025-09-03 18:32:20,1534861
2025-09-03 18:32:20,1534822
2025-09-03 18:32:20,1534769
2025-09-03 18:32:20,1534697
2025-09-03 18:32:20,1534910
2025-09-03 18:32:20,1534995
2025-09-03 18:32:20,1534968
2025-09-03 18:32:20,1535006
2025-09-03 18:32:20,1535156
2025-09-03 18:32:20,1535209
2025-09-03 18:32:20,1535267
2025-09-03 18:32:20,1535259
2025-09-03 18:32:20,1535056
2025-09-03 18:32:20,1534782
2025-09-03 18:32:20,1534320
2025-09-03 18:32:20,1533674
2025-09-03 18:32:20,1532758
2025-09-03 18:32:20,1532143
2025-09-03 18:32:20,1531594
2025-09-03 18:32:20,1531085
2025-09-03 18:32:20,1530855
2025-09-03 18:32:20,1530692
2025-09-03 18:32:20,1530735
2025-09-03 18:32:20,1530716
2025-09-03 18:32:20,1530801
2025-09-03 18:32:20,1530892
2025-09-03 18:32:20,1530897
2025-09-03 18:32:20,1530895
2025-09-03 18:32:20,1530896
2025-09-03 18:32:20,1530781
2025-09-03 18:32:20,1530807
2025-09-03 18:32:20,1530709
2025-09-03 18:32:20,1530690
2025-09-03 18:32:20,1530696
2025-09-03 18:32:20,1530639
2025-09-03 18:32:20,1530690
2025-09-03 18:32:20,1530814
2025-09-03 18:32:20,1530688
2025-09-03 18:32:20,1530756
2025-09-03 18:32:20,1530682
2025-09-03 18:32:20,1530658
2025-09-03 18:32:20,1530559
2025-09-03 18:32:20,1530563
2025-09-03 18:32:20,1530490
2025-09-03 18:32:20,1530539
2025-09-03 18:32:20,1530522
2025-09-03 18:32:20,1530493
2025-09-03 18:32:20,1530454
2025-09-03 18:32:20,1530495
2025-09-03 18:32:20,1530409
2025-09-03 18:32:20,1530512
2025-09-03 18:32:20,1530576
2025-09-03 18:32:20,1530702
2025-09-03 18:32:20,1530757
2025-09-03 18:32:20,1530722
2025-09-03 18:32:20,1530887
2025-09-03 18:32:20,1530823
2025-09-03 18:32:20,1530943
2025-09-03 18:32:20,1531050
2025-09-03 18:32:20,1531031
2025-09-03 18:32:20,1531101
2025-09-03 18:32:20,1531158
2025-09-03 18:32:20,1531174
2025-09-03 18:32:20,1531244
2025-09-03 18:32:20,1531332
2025-09-03 18:32:20,1531277
2025-09-03 18:32:20,1531327
2025-09-03 18:32:20,1531388
2025-09-03 18:32:20,1531549
2025-09-03 18:32:20,1531480
2025-09-03 18:32:20,1531627
2025-09-03 18:32:20,1531483
2025-09-03 18:32:20,1531560
2025-09-03 18:32:20,1531532
2025-09-03 18:32:20,1531696
2025-09-03 18:32:20,1531825
2025-09-03 18:32:20,1531857
2025-09-03 18:32:20,1531861
2025-09-03 18:32:20,1532109
2025-09-03 18:32:20,1531925
2025-09-03 18:32:20,1531982
2025-09-03 18:32:20,1532044
2025-09-03 18:32:20,1531919
2025-09-03 18:32:20,1531525
2025-09-03 18:32:20,1530932
2025-09-03 18:32:20,1530235
2025-09-03 18:32:20,1529349
2025-09-03 18:32:20,1528671
2025-09-03 18:32:20,1528153
2025-09-03 18:32:20,1527773
2025-09-03 18:32:20,1527513
2025-09-03 18:32:20,1527397
2025-09-03 18:32:20,1527383
2025-09-03 18:32:20,1527409
2025-09-03 18:32:20,1527471
2025-09-03 18:32:21,1527609
2025-09-03 18:32:21,1527548
2025-09-03 18:32:21,1527679
2025-09-03 18:32:21,1527581
2025-09-03 18:32:21,1527549
2025-09-03 18:32:21,1527480
2025-09-03 18:32:21,1527410
2025-09-03 18:32:21,1527483
2025-09-03 18:32:21,1527418
2025-09-03 18:32:21,1527528
2025-09-03 18:32:21,1527537
2025-09-03 18:32:21,1527600
2025-09-03 18:32:21,1527545
2025-09-03 18:32:21,1527664
2025-09-03 18:32:21,1527580
2025-09-03 18:32:21,1527600
2025-09-03 18:32:21,1527614
2025-09-03 18:32:21,1527542
2025-09-03 18:32:21,1527534
2025-09-03 18:32:21,1527469
2025-09-03 18:32:21,1527425
2025-09-03 18:32:21,1527438
2025-09-03 18:32:21,1527460
2025-09-03 18:32:21,1527529
2025-09-03 18:32:21,1527623
2025-09-03 18:32:21,1527746
2025-09-03 18:32:21,1527757
2025-09-03 18:32:21,1527882
2025-09-03 18:32:21,1527839
2025-09-03 18:32:21,1527957
2025-09-03 18:32:21,1527993
2025-09-03 18:32:21,1528050
2025-09-03 18:32:21,1528140
2025-09-03 18:32:21,1528144
2025-09-03 18:32:21,1528245
2025-09-03 18:32:21,1528358
2025-09-03 18:32:21,1528293
2025-09-03 18:32:21,1528438
2025-09-03 18:32:21,1528504
2025-09-03 18:32:21,1528483
2025-09-03 18:32:21,1528531
2025-09-03 18:32:21,1528434
2025-09-03 18:32:21,1528541
2025-09-03 18:32:21,1528484
2025-09-03 18:32:21,1528766
2025-09-03 18:32:21,1528636
2025-09-03 18:32:21,1528768
2025-09-03 18:32:21,1528720
2025-09-03 18:32:21,1528810
2025-09-03 18:32:21,1528819
2025-09-03 18:32:21,1528905
2025-09-03 18:32:21,1529031
2025-09-03 18:32:21,1529074
2025-09-03 18:32:21,1529073
2025-09-03 18:32:21,1529155
2025-09-03 18:32:21,1529222
2025-09-03 18:32:21,1529379
2025-09-03 18:32:21,1529434
2025-09-03 18:32:21,1529592
2025-09-03 18:32:21,1529424
2025-09-03 18:32:21,1529009
2025-09-03 18:32:21,1528599
2025-09-03 18:32:21,1527876
2025-09-03 18:32:21,1527070
2025-09-03 18:32:21,1526386
2025-09-03 18:32:21,1525790
2025-09-03 18:32:21,1525552
2025-09-03 18:32:21,1525177
2025-09-03 18:32:21,1525110
2025-09-03 18:32:21,1525175
2025-09-03 18:32:21,1525236
2025-09-03 18:32:21,1525318
2025-09-03 18:32:21,1525375
2025-09-03 18:32:21,1525521
2025-09-03 18:32:21,1525505
2025-09-03 18:32:21,1525478
2025-09-03 18:32:21,1525619
2025-09-03 18:32:21,1525558
2025-09-03 18:32:21,1525527
2025-09-03 18:32:21,1525455
2025-09-03 18:32:21,1525595
2025-09-03 18:32:21,1525696
2025-09-03 18:32:21,1525801
2025-09-03 18:32:21,1525764
2025-09-03 18:32:21,1525817
2025-09-03 18:32:21,1525774
2025-09-03 18:32:21,1525871
2025-09-03 18:32:21,1525726
2025-09-03 18:32:21,1525673
2025-09-03 18:32:21,1525676
2025-09-03 18:32:21,1525650
2025-09-03 18:32:21,1525673
2025-09-03 18:32:21,1525676
2025-09-03 18:32:21,1525603
2025-09-03 18:32:21,1525750
2025-09-03 18:32:21,1525773
2025-09-03 18:32:21,1525748
2025-09-03 18:32:21,1525865
2025-09-03 18:32:21,1525908
2025-09-03 18:32:21,1526062
2025-09-03 18:32:21,1525950
2025-09-03 18:32:22,1526123
2025-09-03 18:32:22,1526231
2025-09-03 18:32:22,1526265
2025-09-03 18:32:22,1526355
2025-09-03 18:32:22,1526361
2025-09-03 18:32:22,1526429
2025-09-03 18:32:22,1526503
2025-09-03 18:32:22,1526585
2025-09-03 18:32:22,1526625
2025-09-03 18:32:22,1526715
2025-09-03 18:32:22,1526772
2025-09-03 18:32:22,1526850
2025-09-03 18:32:22,1526838
2025-09-03 18:32:22,1526904
2025-09-03 18:32:22,1526941
2025-09-03 18:32:22,1526996
2025-09-03 18:32:22,1527058
2025-09-03 18:32:22,1527119
2025-09-03 18:32:22,1527111
2025-09-03 18:32:22,1527181
2025-09-03 18:32:22,1527272
2025-09-03 18:32:22,1527408
2025-09-03 18:32:22,1527587
2025-09-03 18:32:22,1527580
2025-09-03 18:32:22,1527645
2025-09-03 18:32:22,1527785
2025-09-03 18:32:22,1527833
2025-09-03 18:32:22,1527881
2025-09-03 18:32:22,1527677
2025-09-03 18:32:22,1527302
2025-09-03 18:32:22,1526894
2025-09-03 18:32:22,1526153
2025-09-03 18:32:22,1525302
2025-09-03 18:32:22,1524800
2025-09-03 18:32:22,1524296
2025-09-03 18:32:22,1523873
2025-09-03 18:32:22,1523748
2025-09-03 18:32:22,1523651
2025-09-03 18:32:22,1523701
2025-09-03 18:32:22,1523716
2025-09-03 18:32:22,1523982
2025-09-03 18:32:22,1523828
2025-09-03 18:32:22,1523950
2025-09-03 18:32:22,1523999
2025-09-03 18:32:22,1524040
2025-09-03 18:32:22,1524060
2025-09-03 18:32:22,1523949
2025-09-03 18:32:22,1524021
2025-09-03 18:32:22,1524072
2025-09-03 18:32:22,1524178
2025-09-03 18:32:22,1524286
2025-09-03 18:32:22,1524329
2025-09-03 18:32:22,1524323
2025-09-03 18:32:22,1524338
2025-09-03 18:32:22,1524333
2025-09-03 18:32:22,1524335
2025-09-03 18:32:22,1524349
2025-09-03 18:32:22,1524307
2025-09-03 18:32:22,1524271
2025-09-03 18:32:22,1524293
2025-09-03 18:32:22,1524200
2025-09-03 18:32:22,1524242
2025-09-03 18:32:22,1524282
2025-09-03 18:32:22,1524281
2025-09-03 18:32:22,1524402
2025-09-03 18:32:22,1524478
2025-09-03 18:32:22,1524491
2025-09-03 18:32:22,1524505
2025-09-03 18:32:22,1524701
2025-09-03 18:32:22,1524777
2025-09-03 18:32:22,1524765
2025-09-03 18:32:22,1524828
2025-09-03 18:32:22,1525018
2025-09-03 18:32:22,1524981
2025-09-03 18:32:22,1525093
2025-09-03 18:32:22,1525242
2025-09-03 18:32:22,1525224
2025-09-03 18:32:22,1525374
2025-09-03 18:32:22,1525441
2025-09-03 18:32:22,1525422
2025-09-03 18:32:22,1525475
2025-09-03 18:32:22,1525524
2025-09-03 18:32:22,1525580
2025-09-03 18:32:22,1525655
2025-09-03 18:32:22,1525659
2025-09-03 18:32:22,1525739
2025-09-03 18:32:22,1525872
2025-09-03 18:32:22,1525990
2025-09-03 18:32:22,1525945
2025-09-03 18:32:22,1526037
2025-09-03 18:32:22,1526060
2025-09-03 18:32:22,1526118
2025-09-03 18:32:22,1526316
2025-09-03 18:32:22,1526368
2025-09-03 18:32:22,1526478
2025-09-03 18:32:22,1526624
2025-09-03 18:32:22,1526676
2025-09-03 18:32:22,1526760
2025-09-03 18:32:22,1526838
2025-09-03 18:32:22,1526959
2025-09-03 18:32:23,1526904
2025-09-03 18:32:23,1526656
2025-09-03 18:32:23,1526246
2025-09-03 18:32:23,1525636
2025-09-03 18:32:23,1524823
2025-09-03 18:32:23,1524061
2025-09-03 18:32:23,1523319
2025-09-03 18:32:23,1522808
2025-09-03 18:32:23,1522498
2025-09-03 18:32:23,1522346
2025-09-03 18:32:23,1522247
2025-09-03 18:32:23,1522224
2025-09-03 18:32:23,1522327
2025-09-03 18:32:23,1522388
2025-09-03 18:32:23,1522558
2025-09-03 18:32:23,1522589
2025-09-03 18:32:23,1522478
2025-09-03 18:32:23,1522538
2025-09-03 18:32:23,1522409
2025-09-03 18:32:23,1522313
2025-09-03 18:32:23,1522220
2025-09-03 18:32:23,1522242
2025-09-03 18:32:23,1522217
2025-09-03 18:32:23,1522315
2025-09-03 18:32:23,1522348
2025-09-03 18:32:23,1522498
2025-09-03 18:32:23,1522450
2025-09-03 18:32:23,1522604
2025-09-03 18:32:23,1522577
2025-09-03 18:32:23,1522625
2025-09-03 18:32:23,1522564
2025-09-03 18:32:23,1522568
2025-09-03 18:32:23,1522594
2025-09-03 18:32:23,1522533
2025-09-03 18:32:23,1522598
2025-09-03 18:32:23,1522545
2025-09-03 18:32:23,1522593
2025-09-03 18:32:23,1522670
2025-09-03 18:32:23,1522676
2025-09-03 18:32:23,1522879
2025-09-03 18:32:23,1522948
2025-09-03 18:32:23,1522996
2025-09-03 18:32:23,1523105
2025-09-03 18:32:23,1523169
2025-09-03 18:32:23,1523195
2025-09-03 18:32:23,1523294
2025-09-03 18:32:23,1523417
2025-09-03 18:32:23,1523508
2025-09-03 18:32:23,1523584
2025-09-03 18:32:23,1523586
2025-09-03 18:32:23,1523724
2025-09-03 18:32:23,1523786
2025-09-03 18:32:23,1523927
2025-09-03 18:32:23,1524000
2025-09-03 18:32:23,1524134
2025-09-03 18:32:23,1524203
2025-09-03 18:32:23,1524306
2025-09-03 18:32:23,1524239
2025-09-03 18:32:23,1524344
2025-09-03 18:32:23,1524398
2025-09-03 18:32:23,1524438
2025-09-03 18:32:23,1524511
2025-09-03 18:32:23,1524547
2025-09-03 18:32:23,1524652
2025-09-03 18:32:23,1524710
2025-09-03 18:32:23,1524883
2025-09-03 18:32:23,1524867
2025-09-03 18:32:23,1524881
2025-09-03 18:32:23,1525092
2025-09-03 18:32:23,1525170
2025-09-03 18:32:23,1525324
2025-09-03 18:32:23,1525323
2025-09-03 18:32:23,1525471
2025-09-03 18:32:23,1525518
2025-09-03 18:32:23,1525700
2025-09-03 18:32:23,1525536
2025-09-03 18:32:23,1525337
2025-09-03 18:32:23,1524854
2025-09-03 18:32:23,1524166
2025-09-03 18:32:23,1523177
2025-09-03 18:32:23,1522445
2025-09-03 18:32:23,1521893
2025-09-03 18:32:23,1521444
2025-09-03 18:32:23,1521113
2025-09-03 18:32:23,1521084
2025-09-03 18:32:23,1520967
2025-09-03 18:32:23,1521034
2025-09-03 18:32:23,1521107
2025-09-03 18:32:23,1521166
2025-09-03 18:32:23,1521153
2025-09-03 18:32:23,1521289
2025-09-03 18:32:23,1521173
2025-09-03 18:32:23,1521118
2025-09-03 18:32:23,1521093
2025-09-03 18:32:23,1520868
2025-09-03 18:32:23,1520844
2025-09-03 18:32:23,1520811
2025-09-03 18:32:23,1520883
2025-09-03 18:32:23,1520956
2025-09-03 18:32:23,1521072
2025-09-03 18:32:24,1521112
2025-09-03 18:32:24,1521246
2025-09-03 18:32:24,1521294
2025-09-03 18:32:24,1521436
2025-09-03 18:32:24,1521436
2025-09-03 18:32:24,1521354
2025-09-03 18:32:24,1521366
2025-09-03 18:32:24,1521342
2025-09-03 18:32:24,1521428
2025-09-03 18:32:24,1521377
2025-09-03 18:32:24,1521406
2025-09-03 18:32:24,1521402
2025-09-03 18:32:24,1521483
2025-09-03 18:32:24,1521581
2025-09-03 18:32:24,1521590
2025-09-03 18:32:24,1521739
2025-09-03 18:32:24,1521812
2025-09-03 18:32:24,1521867
2025-09-03 18:32:24,1521946
2025-09-03 18:32:24,1522048
2025-09-03 18:32:24,1522125
2025-09-03 18:32:24,1522240
2025-09-03 18:32:24,1522245
2025-09-03 18:32:24,1522383
2025-09-03 18:32:24,1522431
2025-09-03 18:32:24,1522538
2025-09-03 18:32:24,1522639
2025-09-03 18:32:24,1522737
2025-09-03 18:32:24,1522794
2025-09-03 18:32:24,1522937
2025-09-03 18:32:24,1522982
2025-09-03 18:32:24,1523048
2025-09-03 18:32:24,1523163
2025-09-03 18:32:24,1523215
2025-09-03 18:32:24,1523267
2025-09-03 18:32:24,1523312
2025-09-03 18:32:24,1523429
2025-09-03 18:32:24,1523568
2025-09-03 18:32:24,1523591
2025-09-03 18:32:24,1523609
2025-09-03 18:32:24,1523867
2025-09-03 18:32:24,1523850
2025-09-03 18:32:24,1523947
2025-09-03 18:32:24,1523927
2025-09-03 18:32:24,1524212
2025-09-03 18:32:24,1524211
2025-09-03 18:32:24,1524313
2025-09-03 18:32:24,1524386
2025-09-03 18:32:24,1524687
2025-09-03 18:32:24,1524647
2025-09-03 18:32:24,1524744
2025-09-03 18:32:24,1524876
2025-09-03 18:32:24,1525072
2025-09-03 18:32:24,1524896
2025-09-03 18:32:24,1524806
2025-09-03 18:32:24,1524312
2025-09-03 18:32:24,1523742
2025-09-03 18:32:24,1522802
2025-09-03 18:32:24,1521956
2025-09-03 18:32:24,1521353
2025-09-03 18:32:24,1520916
2025-09-03 18:32:24,1520594
2025-09-03 18:32:24,1520409
2025-09-03 18:32:24,1520414
2025-09-03 18:32:24,1520494
2025-09-03 18:32:24,1520483
2025-09-03 18:32:24,1520547
2025-09-03 18:32:24,1520716
2025-09-03 18:32:24,1520747
2025-09-03 18:32:24,1520764
2025-09-03 18:32:24,1520675
2025-09-03 18:32:24,1520591
2025-09-03 18:32:24,1520539
2025-09-03 18:32:24,1520510
2025-09-03 18:32:24,1520428
2025-09-03 18:32:24,1520427
2025-09-03 18:32:24,1520505
2025-09-03 18:32:24,1520670
2025-09-03 18:32:24,1520774
2025-09-03 18:32:24,1520847
2025-09-03 18:32:24,1520897
2025-09-03 18:32:24,1520963
2025-09-03 18:32:24,1521016
2025-09-03 18:32:24,1520997
2025-09-03 18:32:24,1521155
2025-09-03 18:32:24,1521059
2025-09-03 18:32:24,1521104
2025-09-03 18:32:24,1521105
2025-09-03 18:32:24,1521073
2025-09-03 18:32:24,1521181
2025-09-03 18:32:24,1521153
2025-09-03 18:32:24,1521255
2025-09-03 18:32:24,1521309
2025-09-03 18:32:24,1521387
2025-09-03 18:32:24,1521460
2025-09-03 18:32:24,1521562
2025-09-03 18:32:24,1521649
2025-09-03 18:32:24,1521754
2025-09-03 18:32:24,1521880
2025-09-03 18:32:25,1521896
2025-09-03 18:32:25,1521971
2025-09-03 18:32:25,1522105
2025-09-03 18:32:25,1522143
2025-09-03 18:32:25,1522314
2025-09-03 18:32:25,1522444
2025-09-03 18:32:25,1522475
2025-09-03 18:32:25,1522592
2025-09-03 18:32:25,1522558
2025-09-03 18:32:25,1522711
2025-09-03 18:32:25,1522809
2025-09-03 18:32:25,1522890
2025-09-03 18:32:25,1522931
2025-09-03 18:32:25,1523011
2025-09-03 18:32:25,1523078
2025-09-03 18:32:25,1523250
2025-09-03 18:32:25,1523310
2025-09-03 18:32:25,1523419
2025-09-03 18:32:25,1523458
2025-09-03 18:32:25,1523597
2025-09-03 18:32:25,1523653
2025-09-03 18:32:25,1523744
2025-09-03 18:32:25,1523859
2025-09-03 18:32:25,1523820
2025-09-03 18:32:25,1523966
2025-09-03 18:32:25,1524042
2025-09-03 18:32:25,1524288
2025-09-03 18:32:25,1524442
2025-09-03 18:32:25,1524556
2025-09-03 18:32:25,1524627
2025-09-03 18:32:25,1524774
2025-09-03 18:32:25,1524921
2025-09-03 18:32:25,1524952
2025-09-03 18:32:25,1524973
2025-09-03 18:32:25,1524815
2025-09-03 18:32:25,1524387
2025-09-03 18:32:25,1523981
2025-09-03 18:32:25,1523075
2025-09-03 18:32:25,1522226
2025-09-03 18:32:25,1521523
2025-09-03 18:32:25,1521074
2025-09-03 18:32:25,1520744
2025-09-03 18:32:25,1520548
2025-09-03 18:32:25,1520521
2025-09-03 18:32:25,1520639
2025-09-03 18:32:25,1520677
2025-09-03 18:32:25,1520833
2025-09-03 18:32:25,1521067
2025-09-03 18:32:25,1521092
2025-09-03 18:32:25,1521298
2025-09-03 18:32:25,1521201
2025-09-03 18:32:25,1521229
2025-09-03 18:32:25,1521149
2025-09-03 18:32:25,1521204
2025-09-03 18:32:25,1521155
2025-09-03 18:32:25,1521201
2025-09-03 18:32:25,1521092
2025-09-03 18:32:25,1521198
2025-09-03 18:32:25,1521316
2025-09-03 18:32:25,1521473
2025-09-03 18:32:25,1521436
2025-09-03 18:32:25,1521449
2025-09-03 18:32:25,1521533
2025-09-03 18:32:25,1521491
2025-09-03 18:32:25,1521530
2025-09-03 18:32:25,1521598
2025-09-03 18:32:25,1521681
2025-09-03 18:32:25,1521612
2025-09-03 18:32:25,1521627
2025-09-03 18:32:25,1521655
2025-09-03 18:32:25,1521712
2025-09-03 18:32:25,1521819
2025-09-03 18:32:25,1521786
2025-09-03 18:32:25,1521991
2025-09-03 18:32:25,1521966
2025-09-03 18:32:25,1522161
2025-09-03 18:32:25,1522222
2025-09-03 18:32:25,1522314
2025-09-03 18:32:25,1522336
2025-09-03 18:32:25,1522525
2025-09-03 18:32:25,1522624
2025-09-03 18:32:25,1522695
2025-09-03 18:32:25,1522848
2025-09-03 18:32:25,1522846
2025-09-03 18:32:25,1522978
2025-09-03 18:32:25,1522978
2025-09-03 18:32:25,1523113
2025-09-03 18:32:25,1523293
2025-09-03 18:32:25,1523366
2025-09-03 18:32:25,1523422
2025-09-03 18:32:25,1523437
2025-09-03 18:32:25,1523610
2025-09-03 18:32:25,1523618
2025-09-03 18:32:25,1523686
2025-09-03 18:32:25,1523892
2025-09-03 18:32:25,1523862
2025-09-03 18:32:25,1523930
2025-09-03 18:32:25,1524039
2025-09-03 18:32:25,1524154
2025-09-03 18:32:25,1524159
2025-09-03 18:32:26,1524271
2025-09-03 18:32:26,1524286
2025-09-03 18:32:26,1524456
2025-09-03 18:32:26,1524566
2025-09-03 18:32:26,1524662
2025-09-03 18:32:26,1524793
2025-09-03 18:32:26,1524935
2025-09-03 18:32:26,1525150
2025-09-03 18:32:26,1525181
2025-09-03 18:32:26,1525290
2025-09-03 18:32:26,1525475
2025-09-03 18:32:26,1525406
2025-09-03 18:32:26,1525047
2025-09-03 18:32:26,1524545
2025-09-03 18:32:26,1523978
2025-09-03 18:32:26,1523191
2025-09-03 18:32:26,1522346
2025-09-03 18:32:26,1521766
2025-09-03 18:32:26,1521396
2025-09-03 18:32:26,1521219
2025-09-03 18:32:26,1521210
2025-09-03 18:32:26,1521171
2025-09-03 18:32:26,1521373
2025-09-03 18:32:26,1521606
2025-09-03 18:32:26,1521602
2025-09-03 18:32:26,1521811
2025-09-03 18:32:26,1521921
2025-09-03 18:32:26,1521947
2025-09-03 18:32:26,1521881
2025-09-03 18:32:26,1522108
2025-09-03 18:32:26,1522108
2025-09-03 18:32:26,1522135
2025-09-03 18:32:26,1522218
2025-09-03 18:32:26,1522362
2025-09-03 18:32:26,1522428
2025-09-03 18:32:26,1522363
2025-09-03 18:32:26,1522460
2025-09-03 18:32:26,1522420
2025-09-03 18:32:26,1522609
2025-09-03 18:32:26,1522495
2025-09-03 18:32:26,1522513
2025-09-03 18:32:26,1522557
2025-09-03 18:32:26,1522531
2025-09-03 18:32:26,1522581
2025-09-03 18:32:26,1522523
2025-09-03 18:32:26,1522678
2025-09-03 18:32:26,1522734
2025-09-03 18:32:26,1522711
2025-09-03 18:32:26,1522854
2025-09-03 18:32:26,1522884
2025-09-03 18:32:26,1522969
2025-09-03 18:32:22,1523041
2025-09-03 18:32:26,1523144
2025-09-03 18:32:26,1523299
2025-09-03 18:32:26,1523387
2025-09-03 18:32:26,1523427
2025-09-03 18:32:26,1523590
2025-09-03 18:32:26,1523747
2025-09-03 18:32:26,1523820
2025-09-03 18:32:26,1523830
2025-09-03 18:32:26,1524093
2025-09-03 18:32:26,1524132
2025-09-03 18:32:26,1524227
2025-09-03 18:32:26,1524300
2025-09-03 18:32:26,1524424
2025-09-03 18:32:26,1524563
2025-09-03 18:32:26,1524625
2025-09-03 18:32:26,1524728
2025-09-03 18:32:26,1524859
2025-09-03 18:32:26,1524833
2025-09-03 18:32:26,1524980
2025-09-03 18:32:26,1525100
2025-09-03 18:32:26,1525152
2025-09-03 18:32:26,1525201
2025-09-03 18:32:26,1525399
2025-09-03 18:32:26,1525529
2025-09-03 18:32:26,1525529
2025-09-03 18:32:26,1525593
2025-09-03 18:32:26,1525727
2025-09-03 18:32:26,1525889
2025-09-03 18:32:26,1525917
2025-09-03 18:32:26,1526179
2025-09-03 18:32:26,1526281
2025-09-03 18:32:26,1526341
2025-09-03 18:32:26,1526541
2025-09-03 18:32:26,1526709
2025-09-03 18:32:26,1526836
2025-09-03 18:32:26,1526962
2025-09-03 18:32:26,1526792
2025-09-03 18:32:26,1526293
2025-09-03 18:32:26,1525795
2025-09-03 18:32:26,1525221
2025-09-03 18:32:26,1524307
2025-09-03 18:32:26,1523515
2025-09-03 18:32:26,1522950
2025-09-03 18:32:26,1522625
2025-09-03 18:32:26,1522422
2025-09-03 18:32:26,1522355
2025-09-03 18:32:26,1522468
2025-09-03 18:32:26,1522557
2025-09-03 18:32:27,1522762
2025-09-03 18:32:27,1522828
2025-09-03 18:32:27,1522962
2025-09-03 18:32:27,1523200
2025-09-03 18:32:27,1523113
2025-09-03 18:32:27,1523248
2025-09-03 18:32:27,1523282
2025-09-03 18:32:27,1523409
2025-09-03 18:32:27,1523549
2025-09-03 18:32:27,1523664
2025-09-03 18:32:27,1523638
2025-09-03 18:32:27,1523780
2025-09-03 18:32:27,1523874
2025-09-03 18:32:27,1523877
2025-09-03 18:32:27,1524050
2025-09-03 18:32:27,1523961
2025-09-03 18:32:27,1524037
2025-09-03 18:32:27,1523945
2025-09-03 18:32:27,1523934
2025-09-03 18:32:27,1523953
2025-09-03 18:32:27,1523872
2025-09-03 18:32:27,1523963
2025-09-03 18:32:27,1524039
2025-09-03 18:32:27,1524032
2025-09-03 18:32:27,1524058
2025-09-03 18:32:27,1524210
2025-09-03 18:32:27,1524227
2025-09-03 18:32:27,1524307
2025-09-03 18:32:27,1524437
2025-09-03 18:32:27,1524510
2025-09-03 18:32:27,1524721
2025-09-03 18:32:27,1524785
2025-09-03 18:32:27,1524973
2025-09-03 18:32:27,1525131
2025-09-03 18:32:27,1525177
2025-09-03 18:32:27,1525316
2025-09-03 18:32:27,1525406
2025-09-03 18:32:27,1525490
2025-09-03 18:32:27,1525669
2025-09-03 18:32:27,1525775
2025-09-03 18:32:27,1525841
2025-09-03 18:32:27,1525985
2025-09-03 18:32:27,1525959
2025-09-03 18:32:27,1526055
2025-09-03 18:32:27,1526189
2025-09-03 18:32:27,1526268
2025-09-03 18:32:27,1526384
2025-09-03 18:32:27,1526385
2025-09-03 18:32:27,1526549
2025-09-03 18:32:27,1526594
2025-09-03 18:32:27,1526650
2025-09-03 18:32:27,1526754
2025-09-03 18:32:27,1526761
2025-09-03 18:32:27,1526926
2025-09-03 18:32:27,1527046
2025-09-03 18:32:27,1527117
2025-09-03 18:32:27,1527334
2025-09-03 18:32:27,1527433
2025-09-03 18:32:27,1527417
2025-09-03 18:32:27,1527644
2025-09-03 18:32:27,1527687
2025-09-03 18:32:27,1527927
2025-09-03 18:32:27,1527952
2025-09-03 18:32:27,1528099
2025-09-03 18:32:27,1527930
2025-09-03 18:32:27,1527406
2025-09-03 18:32:27,1526827
2025-09-03 18:32:27,1526264
2025-09-03 18:32:27,1525451
2025-09-03 18:32:27,1524590
2025-09-03 18:32:27,1524163
2025-09-03 18:32:27,1523800
2025-09-03 18:32:27,1523712
2025-09-03 18:32:27,1523599
2025-09-03 18:32:27,1523820
2025-09-03 18:32:27,1523963
2025-09-03 18:32:27,1524165
2025-09-03 18:32:27,1524192
2025-09-03 18:32:27,1524421
2025-09-03 18:32:27,1524545
2025-09-03 18:32:27,1524663
2025-09-03 18:32:27,1524694
2025-09-03 18:32:27,1524836
2025-09-03 18:32:27,1525030
2025-09-03 18:32:27,1525095
2025-09-03 18:32:27,1525269
2025-09-03 18:32:27,1525271
2025-09-03 18:32:27,1525344
2025-09-03 18:32:27,1525333
2025-09-03 18:32:27,1525436
2025-09-03 18:32:27,1525443
2025-09-03 18:32:27,1525448
2025-09-03 18:32:27,1525217
2025-09-03 18:32:27,1525428
2025-09-03 18:32:27,1525181
2025-09-03 18:32:27,1525211
2025-09-03 18:32:27,1525237
2025-09-03 18:32:27,1525333
2025-09-03 18:32:27,1525315
2025-09-03 18:32:27,1525380
2025-09-03 18:32:27,1525426
2025-09-03 18:32:28,1525572
2025-09-03 18:32:28,1525656
2025-09-03 18:32:28,1525716
2025-09-03 18:32:28,1526008
2025-09-03 18:32:28,1526004
2025-09-03 18:32:28,1526229
2025-09-03 18:32:28,1526282
2025-09-03 18:32:28,1526512
2025-09-03 18:32:28,1526676
2025-09-03 18:32:28,1526873
2025-09-03 18:32:28,1526983
2025-09-03 18:32:28,1527048
2025-09-03 18:32:28,1527202
2025-09-03 18:32:28,1527322
2025-09-03 18:32:28,1527439
2025-09-03 18:32:28,1527513
2025-09-03 18:32:28,1527613
2025-09-03 18:32:28,1527693
2025-09-03 18:32:28,1527764
2025-09-03 18:32:28,1527936
2025-09-03 18:32:28,1528085
2025-09-03 18:32:28,1528076
2025-09-03 18:32:28,1528258
2025-09-03 18:32:28,1528290
2025-09-03 18:32:28,1528290
2025-09-03 18:32:28,1528493
2025-09-03 18:32:28,1528604
2025-09-03 18:32:28,1528688
2025-09-03 18:32:28,1528729
2025-09-03 18:32:28,1528905
2025-09-03 18:32:28,1528989
2025-09-03 18:32:28,1529112
2025-09-03 18:32:28,1529297
2025-09-03 18:32:28,1529436
2025-09-03 18:32:28,1529454
2025-09-03 18:32:28,1529291
2025-09-03 18:32:28,1528756
2025-09-03 18:32:28,1528213
2025-09-03 18:32:28,1527602
2025-09-03 18:32:28,1527003
2025-09-03 18:32:28,1526217
2025-09-03 18:32:28,1525596
2025-09-03 18:32:28,1525291
2025-09-03 18:32:28,1524999
2025-09-03 18:32:28,1524989
2025-09-03 18:32:28,1525019
2025-09-03 18:32:28,1525079
2025-09-03 18:32:28,1525245
2025-09-03 18:32:28,1525512
2025-09-03 18:32:28,1525629
2025-09-03 18:32:28,1525809
2025-09-03 18:32:28,1525836
2025-09-03 18:32:28,1526030
2025-09-03 18:32:28,1526228
2025-09-03 18:32:28,1526198
2025-09-03 18:32:28,1526413
2025-09-03 18:32:28,1526596
2025-09-03 18:32:28,1526713
2025-09-03 18:32:28,1526920
2025-09-03 18:32:28,1526917
2025-09-03 18:32:28,1527072
2025-09-03 18:32:28,1527124
2025-09-03 18:32:28,1527157
2025-09-03 18:32:28,1527118
2025-09-03 18:32:28,1527162
2025-09-03 18:32:28,1526971
2025-09-03 18:32:28,1526874
2025-09-03 18:32:28,1526939
2025-09-03 18:32:28,1526875
2025-09-03 18:32:28,1526821
2025-09-03 18:32:28,1526880
2025-09-03 18:32:28,1526982
2025-09-03 18:32:28,1527016
2025-09-03 18:32:28,1527077
2025-09-03 18:32:28,1527246
2025-09-03 18:32:28,1527289
2025-09-03 18:32:28,1527405
2025-09-03 18:32:28,1527592
2025-09-03 18:32:28,1527709
2025-09-03 18:32:28,1527802
2025-09-03 18:32:28,1528039
2025-09-03 18:32:28,1528127
2025-09-03 18:32:28,1528294
2025-09-03 18:32:28,1528406
2025-09-03 18:32:28,1528431
2025-09-03 18:32:28,1528695
2025-09-03 18:32:28,1528737
2025-09-03 18:32:28,1528835
2025-09-03 18:32:28,1528993
2025-09-03 18:32:28,1529025
2025-09-03 18:32:28,1529101
2025-09-03 18:32:28,1529206
2025-09-03 18:32:28,1529326
2025-09-03 18:32:28,1529341
2025-09-03 18:32:28,1529469
2025-09-03 18:32:28,1529548
2025-09-03 18:32:28,1529553
2025-09-03 18:32:28,1529792
2025-09-03 18:32:28,1529873
2025-09-03 18:32:28,1530031
2025-09-03 18:32:28,1530115
2025-09-03 18:32:29,1530276
2025-09-03 18:32:29,1530178
2025-09-03 18:32:29,1529932
2025-09-03 18:32:29,1529348
2025-09-03 18:32:29,1528737
2025-09-03 18:32:29,1528199
2025-09-03 18:32:29,1527576
2025-09-03 18:32:29,1526814
2025-09-03 18:32:29,1526249
2025-09-03 18:32:29,1525956
2025-09-03 18:32:29,1525805
2025-09-03 18:32:29,1525806
2025-09-03 18:32:29,1525972
2025-09-03 18:32:29,1526015
2025-09-03 18:32:29,1526192
2025-09-03 18:32:29,1526213
2025-09-03 18:32:29,1526411
2025-09-03 18:32:29,1526494
2025-09-03 18:32:29,1526658
2025-09-03 18:32:29,1526728
2025-09-03 18:32:29,1526819
2025-09-03 18:32:29,1526929
2025-09-03 18:32:29,1526981
2025-09-03 18:32:29,1527052
2025-09-03 18:32:29,1527200
2025-09-03 18:32:29,1527337
2025-09-03 18:32:29,1527285
2025-09-03 18:32:29,1527412
2025-09-03 18:32:29,1527386
2025-09-03 18:32:29,1527293
2025-09-03 18:32:29,1527421
2025-09-03 18:32:29,1527367
2025-09-03 18:32:29,1527248
2025-09-03 18:32:29,1527145
2025-09-03 18:32:29,1527105
2025-09-03 18:32:29,1527150
2025-09-03 18:32:29,1527119
2025-09-03 18:32:29,1527233
2025-09-03 18:32:29,1527180
2025-09-03 18:32:29,1527313
2025-09-03 18:32:29,1527523
2025-09-03 18:32:29,1527596
2025-09-03 18:32:29,1527717
2025-09-03 18:32:29,1527849
2025-09-03 18:32:29,1527954
2025-09-03 18:32:29,1528134
2025-09-03 18:32:29,1528264
2025-09-03 18:32:29,1528441
2025-09-03 18:32:29,1528577
2025-09-03 18:32:29,1528739
2025-09-03 18:32:29,1528772
2025-09-03 18:32:29,1528868
2025-09-03 18:32:29,1529055
2025-09-03 18:32:29,1529049
2025-09-03 18:32:29,1529258
2025-09-03 18:32:29,1529276
2025-09-03 18:32:29,1529378
2025-09-03 18:32:29,1529496
2025-09-03 18:32:29,1529591
2025-09-03 18:32:29,1529630
2025-09-03 18:32:29,1529722
2025-09-03 18:32:29,1529749
2025-09-03 18:32:29,1529950
2025-09-03 18:32:29,1529984
2025-09-03 18:32:29,1530101
2025-09-03 18:32:29,1530197
2025-09-03 18:32:29,1530083
2025-09-03 18:32:29,1529842
2025-09-03 18:32:29,1529247
2025-09-03 18:32:29,1528709
2025-09-03 18:32:29,1527873
2025-09-03 18:32:29,1526998
2025-09-03 18:32:29,1526280
2025-09-03 18:32:29,1525787
2025-09-03 18:32:29,1525443
2025-09-03 18:32:29,1525371
2025-09-03 18:32:29,1525319
2025-09-03 18:32:29,1525401
2025-09-03 18:32:29,1525565
2025-09-03 18:32:29,1525652
2025-09-03 18:32:29,1525742
2025-09-03 18:32:29,1525876
2025-09-03 18:32:29,1525953
2025-09-03 18:32:29,1526033
2025-09-03 18:32:29,1526142
2025-09-03 18:32:29,1526246
2025-09-03 18:32:29,1526223
2025-09-03 18:32:29,1526368
2025-09-03 18:32:29,1526463
2025-09-03 18:32:29,1526457
2025-09-03 18:32:29,1526521
2025-09-03 18:32:29,1526462
2025-09-03 18:32:29,1526574
2025-09-03 18:32:29,1526482
2025-09-03 18:32:29,1526426
2025-09-03 18:32:29,1526357
2025-09-03 18:32:29,1526360
2025-09-03 18:32:29,1526319
2025-09-03 18:32:29,1526353
2025-09-03 18:32:30,1526294
2025-09-03 18:32:30,1526283
2025-09-03 18:32:30,1526315
2025-09-03 18:32:30,1526406
2025-09-03 18:32:30,1526467
2025-09-03 18:32:30,1526398
2025-09-03 18:32:30,1526558
2025-09-03 18:32:30,1526681
2025-09-03 18:32:30,1526723
2025-09-03 18:32:30,1526795
2025-09-03 18:32:30,1527053
2025-09-03 18:32:30,1527094
2025-09-03 18:32:30,1527226
2025-09-03 18:32:30,1527334
2025-09-03 18:32:30,1527494
2025-09-03 18:32:30,1527517
2025-09-03 18:32:30,1527665
2025-09-03 18:32:30,1527790
2025-09-03 18:32:30,1527960
2025-09-03 18:32:30,1527987
2025-09-03 18:32:30,1528199
2025-09-03 18:32:30,1528268
2025-09-03 18:32:30,1528278
2025-09-03 18:32:30,1528346
2025-09-03 18:32:30,1528409
2025-09-03 18:32:30,1528437
2025-09-03 18:32:30,1528632
2025-09-03 18:32:30,1528650
2025-09-03 18:32:30,1528731
2025-09-03 18:32:30,1528910
2025-09-03 18:32:30,1528959
2025-09-03 18:32:30,1528993
2025-09-03 18:32:30,1529072
2025-09-03 18:32:30,1528894
2025-09-03 18:32:30,1528470
2025-09-03 18:32:30,1527924
2025-09-03 18:32:30,1527314
2025-09-03 18:32:30,1526122
2025-09-03 18:32:30,1525369
2025-09-03 18:32:30,1524675
2025-09-03 18:32:30,1524170
2025-09-03 18:32:30,1523969
2025-09-03 18:32:30,1523782
2025-09-03 18:32:30,1523856
2025-09-03 18:32:30,1523844
2025-09-03 18:32:30,1523970
2025-09-03 18:32:30,1524102
2025-09-03 18:32:30,1524196
2025-09-03 18:32:30,1524267
2025-09-03 18:32:30,1524378
2025-09-03 18:32:30,1524396
2025-09-03 18:32:30,1524320
2025-09-03 18:32:30,1524347
2025-09-03 18:32:30,1524393
2025-09-03 18:32:30,1524366
2025-09-03 18:32:30,1524401
2025-09-03 18:32:30,1524562
2025-09-03 18:32:30,1524561
2025-09-03 18:32:30,1524548
2025-09-03 18:32:30,1524525
2025-09-03 18:32:30,1524520
2025-09-03 18:32:30,1524453
2025-09-03 18:32:30,1524423
2025-09-03 18:32:30,1524482
2025-09-03 18:32:30,1524469
2025-09-03 18:32:30,1524458
2025-09-03 18:32:30,1524521
2025-09-03 18:32:30,1524490
2025-09-03 18:32:30,1524430
2025-09-03 18:32:30,1524487
2025-09-03 18:32:30,1524500
2025-09-03 18:32:30,1524417
2025-09-03 18:32:30,1524588
2025-09-03 18:32:30,1524651
2025-09-03 18:32:30,1524711
2025-09-03 18:32:30,1524824
2025-09-03 18:32:30,1524849
2025-09-03 18:32:30,1524894
2025-09-03 18:32:30,1525060
2025-09-03 18:32:30,1525088
2025-09-03 18:32:30,1525111
2025-09-03 18:32:30,1525207
2025-09-03 18:32:30,1525362
2025-09-03 18:32:30,1525340
2025-09-03 18:32:30,1525388
2025-09-03 18:32:30,1525417
2025-09-03 18:32:30,1525476
2025-09-03 18:32:30,1525486
2025-09-03 18:32:30,1525652
2025-09-03 18:32:30,1525576
2025-09-03 18:32:30,1525681
2025-09-03 18:32:30,1525653
2025-09-03 18:32:30,1525756
2025-09-03 18:32:30,1525734
2025-09-03 18:32:30,1525932
2025-09-03 18:32:30,1525919
2025-09-03 18:32:30,1526050
2025-09-03 18:32:30,1526149
2025-09-03 18:32:30,1526318
2025-09-03 18:32:30,1526312
2025-09-03 18:32:31,1526199
2025-09-03 18:32:31,1525887
2025-09-03 18:32:31,1525287
2025-09-03 18:32:31,1524526
2025-09-03 18:32:31,1523471
2025-09-03 18:32:31,1522712
2025-09-03 18:32:31,1522168
2025-09-03 18:32:31,1521755
2025-09-03 18:32:31,1521373
2025-09-03 18:32:31,1521339
2025-09-03 18:32:31,1521268
2025-09-03 18:32:31,1521503
2025-09-03 18:32:31,1521588
2025-09-03 18:32:31,1521766
2025-09-03 18:32:31,1521820
2025-09-03 18:32:31,1521855
2025-09-03 18:32:31,1521772
2025-09-03 18:32:31,1521889
2025-09-03 18:32:31,1521750
2025-09-03 18:32:31,1521765
2025-09-03 18:32:31,1521813
2025-09-03 18:32:31,1521775
2025-09-03 18:32:31,1521820
2025-09-03 18:32:31,1521866
2025-09-03 18:32:31,1521854
2025-09-03 18:32:31,1521878
2025-09-03 18:32:31,1521857
2025-09-03 18:32:31,1521739
2025-09-03 18:32:31,1521835
2025-09-03 18:32:31,1521835
2025-09-03 18:32:31,1521613
2025-09-03 18:32:31,1521701
2025-09-03 18:32:31,1521683
2025-09-03 18:32:31,1521754
2025-09-03 18:32:31,1521765
2025-09-03 18:32:31,1521674
2025-09-03 18:32:31,1521695
2025-09-03 18:32:31,1521851
2025-09-03 18:32:31,1521870
2025-09-03 18:32:31,1521935
2025-09-03 18:32:31,1522058
2025-09-03 18:32:31,1522076
2025-09-03 18:32:31,1522199
2025-09-03 18:32:31,1522331
2025-09-03 18:32:31,1522462
2025-09-03 18:32:31,1522563
2025-09-03 18:32:31,1522588
2025-09-03 18:32:31,1522693
2025-09-03 18:32:31,1522833
2025-09-03 18:32:31,1522816
2025-09-03 18:32:31,1522940
2025-09-03 18:32:31,1523012
2025-09-03 18:32:31,1523105
2025-09-03 18:32:31,1523020
2025-09-03 18:32:31,1523107
2025-09-03 18:32:31,1523118
2025-09-03 18:32:31,1523198
2025-09-03 18:32:31,1523276
2025-09-03 18:32:31,1523344
2025-09-03 18:32:31,1523331
2025-09-03 18:32:31,1523397
2025-09-03 18:32:31,1523390
2025-09-03 18:32:31,1523523
2025-09-03 18:32:31,1523542
2025-09-03 18:32:31,1523747
2025-09-03 18:32:31,1523742
2025-09-03 18:32:31,1523793
2025-09-03 18:32:31,1523928
2025-09-03 18:32:31,1524005
2025-09-03 18:32:31,1524075
2025-09-03 18:32:31,1523963
2025-09-03 18:32:31,1523582
2025-09-03 18:32:31,1523067
2025-09-03 18:32:31,1522169
2025-09-03 18:32:31,1521279
2025-09-03 18:32:31,1520479
2025-09-03 18:32:31,1519955
2025-09-03 18:32:31,1519484
2025-09-03 18:32:31,1519335
2025-09-03 18:32:31,1519224
2025-09-03 18:32:31,1519332
2025-09-03 18:32:31,1519372
2025-09-03 18:32:31,1519507
2025-09-03 18:32:31,1519670
2025-09-03 18:32:31,1519784
2025-09-03 18:32:31,1519853
2025-09-03 18:32:31,1519963
2025-09-03 18:32:31,1519854
2025-09-03 18:32:31,1519874
2025-09-03 18:32:31,1519956
2025-09-03 18:32:31,1519977
2025-09-03 18:32:31,1519960
2025-09-03 18:32:31,1520045
2025-09-03 18:32:31,1520141
2025-09-03 18:32:31,1520218
2025-09-03 18:32:31,1520271
2025-09-03 18:32:31,1520285
2025-09-03 18:32:31,1520311
2025-09-03 18:32:31,1520335
2025-09-03 18:32:31,1520264
2025-09-03 18:32:31,1520148
2025-09-03 18:32:32,1520147
2025-09-03 18:32:32,1520169
2025-09-03 18:32:32,1520155
2025-09-03 18:32:32,1520247
2025-09-03 18:32:32,1520361
2025-09-03 18:32:32,1520322
2025-09-03 18:32:32,1520387
2025-09-03 18:32:32,1520474
2025-09-03 18:32:32,1520494
2025-09-03 18:32:32,1520579
2025-09-03 18:32:32,1520697
2025-09-03 18:32:32,1520829
2025-09-03 18:32:32,1520908
2025-09-03 18:32:32,1521030
2025-09-03 18:32:32,1521031
2025-09-03 18:32:32,1521091
2025-09-03 18:32:32,1521130
2025-09-03 18:32:32,1521272
2025-09-03 18:32:32,1521284
2025-09-03 18:32:32,1521309
2025-09-03 18:32:32,1521504
2025-09-03 18:32:32,1521594
2025-09-03 18:32:32,1521666
2025-09-03 18:32:32,1521814
2025-09-03 18:32:32,1521730
2025-09-03 18:32:32,1521832
2025-09-03 18:32:32,1521904
2025-09-03 18:32:32,1522024
2025-09-03 18:32:32,1521957
2025-09-03 18:32:32,1522031
2025-09-03 18:32:32,1522123
2025-09-03 18:32:32,1522217
2025-09-03 18:32:32,1522242
2025-09-03 18:32:32,1522344
2025-09-03 18:32:32,1522435
2025-09-03 18:32:32,1522489
2025-09-03 18:32:32,1522599
2025-09-03 18:32:32,1522782
2025-09-03 18:32:32,1522848
2025-09-03 18:32:32,1522845
2025-09-03 18:32:32,1522784
2025-09-03 18:32:32,1522215
2025-09-03 18:32:32,1521685
2025-09-03 18:32:32,1520758
2025-09-03 18:32:32,1519930
2025-09-03 18:32:32,1519276
2025-09-03 18:32:32,1518779
2025-09-03 18:32:32,1518318
2025-09-03 18:32:32,1518145
2025-09-03 18:32:32,1518139
2025-09-03 18:32:32,1518265
2025-09-03 18:32:32,1518346
2025-09-03 18:32:32,1518417
2025-09-03 18:32:32,1518580
2025-09-03 18:32:32,1518710
2025-09-03 18:32:32,1518710
2025-09-03 18:32:32,1518793
2025-09-03 18:32:32,1518890
2025-09-03 18:32:32,1518943
2025-09-03 18:32:32,1519016
2025-09-03 18:32:32,1518991
2025-09-03 18:32:32,1519089
2025-09-03 18:32:32,1519135
2025-09-03 18:32:32,1519243
2025-09-03 18:32:32,1519296
2025-09-03 18:32:32,1519362
2025-09-03 18:32:32,1519408
2025-09-03 18:32:32,1519422
2025-09-03 18:32:32,1519408
2025-09-03 18:32:32,1519335
2025-09-03 18:32:32,1519453
2025-09-03 18:32:32,1519358
2025-09-03 18:32:32,1519299
2025-09-03 18:32:32,1519322
2025-09-03 18:32:32,1519282
2025-09-03 18:32:32,1519377
2025-09-03 18:32:32,1519349
2025-09-03 18:32:32,1519465
2025-09-03 18:32:32,1519574
2025-09-03 18:32:32,1519618
2025-09-03 18:32:32,1519687
2025-09-03 18:32:32,1519729
2025-09-03 18:32:32,1519794
2025-09-03 18:32:32,1519947
2025-09-03 18:32:32,1520101
2025-09-03 18:32:32,1520145
2025-09-03 18:32:32,1520291
2025-09-03 18:32:32,1520327
2025-09-03 18:32:32,1520419
2025-09-03 18:32:32,1520526
2025-09-03 18:32:32,1520597
2025-09-03 18:32:32,1520763
2025-09-03 18:32:32,1520752
2025-09-03 18:32:32,1520752
2025-09-03 18:32:32,1520878
2025-09-03 18:32:32,1520873
2025-09-03 18:32:32,1520942
2025-09-03 18:32:32,1521006
2025-09-03 18:32:32,1521070
2025-09-03 18:32:32,1521116
2025-09-03 18:32:32,1521252
2025-09-03 18:32:33,1521242
2025-09-03 18:32:33,1521404
2025-09-03 18:32:33,1521468
2025-09-03 18:32:33,1521640
2025-09-03 18:32:33,1521673
2025-09-03 18:32:33,1521810
2025-09-03 18:32:33,1521809
2025-09-03 18:32:33,1522050
2025-09-03 18:32:33,1522164
2025-09-03 18:32:33,1522061
2025-09-03 18:32:33,1521637
2025-09-03 18:32:33,1521063
2025-09-03 18:32:33,1520328
2025-09-03 18:32:33,1519497
2025-09-03 18:32:33,1518688
2025-09-03 18:32:33,1518241
2025-09-03 18:32:33,1517922
2025-09-03 18:32:33,1517706
2025-09-03 18:32:33,1517699
2025-09-03 18:32:33,1517716
2025-09-03 18:32:33,1517812
2025-09-03 18:32:33,1518008
2025-09-03 18:32:33,1518111
2025-09-03 18:32:33,1518160
2025-09-03 18:32:33,1518422
2025-09-03 18:32:33,1518429
2025-09-03 18:32:33,1518432
2025-09-03 18:32:33,1518342
2025-09-03 18:32:33,1518576
2025-09-03 18:32:33,1518557
2025-09-03 18:32:33,1518616
2025-09-03 18:32:33,1518747
2025-09-03 18:32:33,1518685
2025-09-03 18:32:33,1518815
2025-09-03 18:32:33,1518781
2025-09-03 18:32:33,1518719
2025-09-03 18:32:33,1518810
2025-09-03 18:32:33,1518799
2025-09-03 18:32:33,1518789
2025-09-03 18:32:33,1518833
2025-09-03 18:32:33,1518654
2025-09-03 18:32:33,1518708
2025-09-03 18:32:33,1518825
2025-09-03 18:32:33,1518799
2025-09-03 18:32:33,1518809
2025-09-03 18:32:33,1518892
2025-09-03 18:32:33,1518947
2025-09-03 18:32:33,1519174
2025-09-03 18:32:33,1519130
2025-09-03 18:32:33,1519257
2025-09-03 18:32:33,1519285
2025-09-03 18:32:33,1519456
2025-09-03 18:32:33,1519523
2025-09-03 18:32:33,1519628
2025-09-03 18:32:33,1519777
2025-09-03 18:32:33,1519915
2025-09-03 18:32:33,1520022
2025-09-03 18:32:33,1520048
2025-09-03 18:32:33,1520201
2025-09-03 18:32:33,1520211
2025-09-03 18:32:33,1520379
2025-09-03 18:32:33,1520344
2025-09-03 18:32:33,1520434
2025-09-03 18:32:33,1520558
2025-09-03 18:32:33,1520685
2025-09-03 18:32:33,1520673
2025-09-03 18:32:33,1520845
2025-09-03 18:32:33,1520834
2025-09-03 18:32:33,1520896
2025-09-03 18:32:33,1520955
2025-09-03 18:32:33,1520979
2025-09-03 18:32:33,1521113
2025-09-03 18:32:33,1521266
2025-09-03 18:32:33,1521371
2025-09-03 18:32:33,1521512
2025-09-03 18:32:33,1521464
2025-09-03 18:32:33,1521664
2025-09-03 18:32:33,1521722
2025-09-03 18:32:33,1522015
2025-09-03 18:32:33,1521945
2025-09-03 18:32:33,1521908
2025-09-03 18:32:33,1521508
2025-09-03 18:32:33,1520870
2025-09-03 18:32:33,1520046
2025-09-03 18:32:33,1518988
2025-09-03 18:32:33,1518387
2025-09-03 18:32:33,1517784
2025-09-03 18:32:33,1517358
2025-09-03 18:32:33,1517100
2025-09-03 18:32:33,1517103
2025-09-03 18:32:33,1517244
2025-09-03 18:32:33,1517344
2025-09-03 18:32:33,1517431
2025-09-03 18:32:33,1517448
2025-09-03 18:32:33,1517705
2025-09-03 18:32:33,1517744
2025-09-03 18:32:33,1517848
2025-09-03 18:32:33,1517867
2025-09-03 18:32:33,1517800
2025-09-03 18:32:33,1517732
2025-09-03 18:32:34,1517698
2025-09-03 18:32:34,1517804
2025-09-03 18:32:34,1517824
2025-09-03 18:32:34,1517860
2025-09-03 18:32:34,1517884
2025-09-03 18:32:34,1517958
2025-09-03 18:32:34,1517938
2025-09-03 18:32:34,1517949
2025-09-03 18:32:34,1517955
2025-09-03 18:32:34,1518045
2025-09-03 18:32:34,1518012
2025-09-03 18:32:34,1517991
2025-09-03 18:32:34,1517947
2025-09-03 18:32:34,1517955
2025-09-03 18:32:34,1517880
2025-09-03 18:32:34,1518030
2025-09-03 18:32:34,1518107
2025-09-03 18:32:34,1518236
2025-09-03 18:32:34,1518355
2025-09-03 18:32:34,1518363
2025-09-03 18:32:34,1518490
2025-09-03 18:32:34,1518517
2025-09-03 18:32:34,1518575
2025-09-03 18:32:34,1518732
2025-09-03 18:32:34,1518829
2025-09-03 18:32:34,1518879
2025-09-03 18:32:34,1519118
2025-09-03 18:32:34,1519127
2025-09-03 18:32:34,1519204
2025-09-03 18:32:34,1519367
2025-09-03 18:32:34,1519403
2025-09-03 18:32:34,1519525
2025-09-03 18:32:34,1519619
2025-09-03 18:32:34,1519680
2025-09-03 18:32:34,1519685
2025-09-03 18:32:34,1519884
2025-09-03 18:32:34,1519925
2025-09-03 18:32:34,1519904
2025-09-03 18:32:34,1519988
2025-09-03 18:32:34,1520118
2025-09-03 18:32:34,1520206
2025-09-03 18:32:34,1520188
2025-09-03 18:32:34,1520365
2025-09-03 18:32:34,1520379
2025-09-03 18:32:34,1520604
2025-09-03 18:32:34,1520661
2025-09-03 18:32:34,1520687
2025-09-03 18:32:34,1520872
2025-09-03 18:32:34,1520947
2025-09-03 18:32:34,1521166
2025-09-03 18:32:34,1521278
2025-09-03 18:32:34,1521292
2025-09-03 18:32:34,1521128
2025-09-03 18:32:34,1520688
2025-09-03 18:32:34,1520176
2025-09-03 18:32:34,1519247
2025-09-03 18:32:34,1518402
2025-09-03 18:32:34,1517608
2025-09-03 18:32:34,1517020
2025-09-03 18:32:34,1516665
2025-09-03 18:32:34,1516524
2025-09-03 18:32:34,1516426
2025-09-03 18:32:34,1516544
2025-09-03 18:32:34,1516628
2025-09-03 18:32:34,1516695
2025-09-03 18:32:34,1516756
2025-09-03 18:32:34,1516873
2025-09-03 18:32:34,1516940
2025-09-03 18:32:34,1517076
2025-09-03 18:32:34,1517133
2025-09-03 18:32:34,1516983
2025-09-03 18:32:34,1516974
2025-09-03 18:32:34,1516975
2025-09-03 18:32:34,1516894
2025-09-03 18:32:34,1516935
2025-09-03 18:32:34,1517090
2025-09-03 18:32:34,1517160
2025-09-03 18:32:34,1517173
2025-09-03 18:32:34,1517266
2025-09-03 18:32:34,1517190
2025-09-03 18:32:34,1517271
2025-09-03 18:32:34,1517174
2025-09-03 18:32:34,1517157
2025-09-03 18:32:34,1517157
2025-09-03 18:32:34,1517215
2025-09-03 18:32:34,1517165
2025-09-03 18:32:34,1517274
2025-09-03 18:32:34,1517232
2025-09-03 18:32:34,1517351
2025-09-03 18:32:34,1517410
2025-09-03 18:32:34,1517462
2025-09-03 18:32:34,1517525
2025-09-03 18:32:34,1517747
2025-09-03 18:32:34,1517753
2025-09-03 18:32:34,1517874
2025-09-03 18:32:34,1517975
2025-09-03 18:32:34,1518077
2025-09-03 18:32:34,1518196
2025-09-03 18:32:34,1518286
2025-09-03 18:32:34,1518341
2025-09-03 18:32:35,1518399
2025-09-03 18:32:35,1518571
2025-09-03 18:32:35,1518680
2025-09-03 18:32:35,1518824
2025-09-03 18:32:35,1518911
2025-09-03 18:32:35,1518999
2025-09-03 18:32:35,1519038
2025-09-03 18:32:35,1519092
2025-09-03 18:32:35,1519150
2025-09-03 18:32:35,1519272
2025-09-03 18:32:35,1519281
2025-09-03 18:32:35,1519442
2025-09-03 18:32:35,1519427
2025-09-03 18:32:35,1519495
2025-09-03 18:32:35,1519683
2025-09-03 18:32:35,1519711
2025-09-03 18:32:35,1519769
2025-09-03 18:32:35,1519970
2025-09-03 18:32:35,1520073
2025-09-03 18:32:35,1520157
2025-09-03 18:32:35,1520340
2025-09-03 18:32:35,1520453
2025-09-03 18:32:35,1520543
2025-09-03 18:32:35,1520732
2025-09-03 18:32:35,1520830
2025-09-03 18:32:35,1521005
2025-09-03 18:32:35,1521033
2025-09-03 18:32:35,1521064
2025-09-03 18:32:35,1520721
2025-09-03 18:32:35,1520141
2025-09-03 18:32:35,1519446
2025-09-03 18:32:35,1518392
2025-09-03 18:32:35,1517595
2025-09-03 18:32:35,1516921
2025-09-03 18:32:35,1516580
2025-09-03 18:32:35,1516459
2025-09-03 18:32:35,1516367
2025-09-03 18:32:35,1516338
2025-09-03 18:32:35,1516387
2025-09-03 18:32:35,1516637
2025-09-03 18:32:35,1516784
2025-09-03 18:32:35,1517008
2025-09-03 18:32:35,1517031
2025-09-03 18:32:35,1517079
2025-09-03 18:32:35,1517184
2025-09-03 18:32:35,1517266
2025-09-03 18:32:35,1517208
2025-09-03 18:32:35,1517386
2025-09-03 18:32:35,1517332
2025-09-03 18:32:35,1517371
2025-09-03 18:32:35,1517543
2025-09-03 18:32:35,1517675
2025-09-03 18:32:35,1517633
2025-09-03 18:32:35,1517547
2025-09-03 18:32:35,1517707
2025-09-03 18:32:35,1517594
2025-09-03 18:32:35,1517662
2025-09-03 18:32:35,1517733
2025-09-03 18:32:35,1517659
2025-09-03 18:32:35,1517696
2025-09-03 18:32:35,1517715
2025-09-03 18:32:35,1517704
2025-09-03 18:32:35,1517753
2025-09-03 18:32:35,1517812
2025-09-03 18:32:35,1517911
2025-09-03 18:32:35,1517899
2025-09-03 18:32:35,1517961
2025-09-03 18:32:35,1518094
2025-09-03 18:32:35,1518167
2025-09-03 18:32:35,1518359
2025-09-03 18:32:35,1518495
2025-09-03 18:32:35,1518571
2025-09-03 18:32:35,1518785
2025-09-03 18:32:35,1518759
2025-09-03 18:32:35,1519049
2025-09-03 18:32:35,1519133
2025-09-03 18:32:35,1519154
2025-09-03 18:32:35,1519254
2025-09-03 18:32:35,1519461
2025-09-03 18:32:35,1519543
2025-09-03 18:32:35,1519553
2025-09-03 18:32:35,1519692
2025-09-03 18:32:35,1519757
2025-09-03 18:32:35,1519923
2025-09-03 18:32:35,1519944
2025-09-03 18:32:35,1520008
2025-09-03 18:32:35,1520143
2025-09-03 18:32:35,1520246
2025-09-03 18:32:35,1520355
2025-09-03 18:32:35,1520423
2025-09-03 18:32:35,1520466
2025-09-03 18:32:35,1520567
2025-09-03 18:32:35,1520617
2025-09-03 18:32:35,1520756
2025-09-03 18:32:35,1520917
2025-09-03 18:32:35,1521097
2025-09-03 18:32:35,1521184
2025-09-03 18:32:35,1521427
2025-09-03 18:32:35,1521545
2025-09-03 18:32:35,1521670
2025-09-03 18:32:36,1521808
2025-09-03 18:32:36,1521767
2025-09-03 18:32:36,1521444
2025-09-03 18:32:36,1520921
2025-09-03 18:32:36,1520301
2025-09-03 18:32:36,1519489
2025-09-03 18:32:36,1518607
2025-09-03 18:32:36,1517953
2025-09-03 18:32:36,1517623
2025-09-03 18:32:36,1517312
2025-09-03 18:32:36,1517166
2025-09-03 18:32:36,1517257
2025-09-03 18:32:36,1517386
2025-09-03 18:32:36,1517639
2025-09-03 18:32:36,1517767
2025-09-03 18:32:36,1517866
2025-09-03 18:32:36,1518058
2025-09-03 18:32:36,1518165
2025-09-03 18:32:36,1518150
2025-09-03 18:32:36,1518384
2025-09-03 18:32:36,1518405
2025-09-03 18:32:36,1518418
2025-09-03 18:32:36,1518531
2025-09-03 18:32:36,1518616
2025-09-03 18:32:36,1518742
2025-09-03 18:32:36,1518666
2025-09-03 18:32:36,1518812
2025-09-03 18:32:36,1518772
2025-09-03 18:32:36,1518919
2025-09-03 18:32:36,1518856
2025-09-03 18:32:36,1518857
2025-09-03 18:32:36,1518873
2025-09-03 18:32:36,1518855
2025-09-03 18:32:36,1518896
2025-09-03 18:32:36,1518804
2025-09-03 18:32:36,1518908
2025-09-03 18:32:36,1519020
2025-09-03 18:32:36,1518990
2025-09-03 18:32:36,1519162
2025-09-03 18:32:36,1519230
2025-09-03 18:32:36,1519407
2025-09-03 18:32:36,1519451
2025-09-03 18:32:36,1519593
2025-09-03 18:32:36,1519670
2025-09-03 18:32:36,1519832
2025-09-03 18:32:36,1519851
2025-09-03 18:32:36,1520043
2025-09-03 18:32:36,1520321
2025-09-03 18:32:36,1520235
2025-09-03 18:32:36,1520485
2025-09-03 18:32:36,1520560
2025-09-03 18:32:36,1520674
2025-09-03 18:32:36,1520752
2025-09-03 18:32:36,1520863
2025-09-03 18:32:36,1521048
2025-09-03 18:32:36,1521028
2025-09-03 18:32:36,1521116
2025-09-03 18:32:36,1521168
2025-09-03 18:32:36,1521285
2025-09-03 18:32:36,1521465
2025-09-03 18:32:36,1521521
2025-09-03 18:32:36,1521652
2025-09-03 18:32:36,1521759
2025-09-03 18:32:36,1521896
2025-09-03 18:32:36,1521851
2025-09-03 18:32:36,1521977
2025-09-03 18:32:36,1522042
2025-09-03 18:32:36,1522210
2025-09-03 18:32:36,1522411
2025-09-03 18:32:36,1522484
2025-09-03 18:32:36,1522708
2025-09-03 18:32:36,1522895
2025-09-03 18:32:36,1522931
2025-09-03 18:32:36,1523178
2025-09-03 18:32:36,1523258
2025-09-03 18:32:36,1523154
2025-09-03 18:32:36,1522850
2025-09-03 18:32:36,1522280
2025-09-03 18:32:36,1521678
2025-09-03 18:32:36,1520878
2025-09-03 18:32:36,1520067
2025-09-03 18:32:36,1519362
2025-09-03 18:32:36,1518955
2025-09-03 18:32:36,1518606
2025-09-03 18:32:36,1518501
2025-09-03 18:32:36,1518624
2025-09-03 18:32:36,1518632
2025-09-03 18:32:36,1518893
2025-09-03 18:32:36,1518999
2025-09-03 18:32:36,1519164
2025-09-03 18:32:36,1519220
2025-09-03 18:32:36,1519396
2025-09-03 18:32:36,1519573
2025-09-03 18:32:36,1519618
2025-09-03 18:32:36,1519693
2025-09-03 18:32:36,1519798
2025-09-03 18:32:36,1519899
2025-09-03 18:32:36,1519996
2025-09-03 18:32:36,1520105
2025-09-03 18:32:36,1520153
2025-09-03 18:32:37,1520189
2025-09-03 18:32:37,1520259
2025-09-03 18:32:37,1520203
2025-09-03 18:32:37,1520196
2025-09-03 18:32:37,1520232
2025-09-03 18:32:37,1520136
2025-09-03 18:32:37,1520183
2025-09-03 18:32:37,1520079
2025-09-03 18:32:37,1520081
2025-09-03 18:32:37,1519957
2025-09-03 18:32:37,1520077
2025-09-03 18:32:37,1520031
2025-09-03 18:32:37,1520147
2025-09-03 18:32:37,1520256
2025-09-03 18:32:37,1520407
2025-09-03 18:32:37,1520496
2025-09-03 18:32:37,1520631
2025-09-03 18:32:37,1520708
2025-09-03 18:32:37,1520883
2025-09-03 18:32:37,1521013
2025-09-03 18:32:37,1521107
2025-09-03 18:32:37,1521308
2025-09-03 18:32:37,1521430
2025-09-03 18:32:37,1521693
2025-09-03 18:32:37,1521872
2025-09-03 18:32:37,1521995
2025-09-03 18:32:37,1522077
2025-09-03 18:32:37,1522339
2025-09-03 18:32:37,1522375
2025-09-03 18:32:37,1522536
2025-09-03 18:32:37,1522550
2025-09-03 18:32:37,1522574
2025-09-03 18:32:37,1522679
2025-09-03 18:32:37,1522802
2025-09-03 18:32:37,1522916
2025-09-03 18:32:37,1522820
2025-09-03 18:32:37,1523034
2025-09-03 18:32:37,1523173
2025-09-03 18:32:37,1523187
2025-09-03 18:32:37,1523332
2025-09-03 18:32:37,1523522
2025-09-03 18:32:37,1523615
2025-09-03 18:32:37,1523677
2025-09-03 18:32:37,1523718
2025-09-03 18:32:37,1523923
2025-09-03 18:32:37,1524066
2025-09-03 18:32:37,1524270
2025-09-03 18:32:37,1524416
2025-09-03 18:32:37,1524493
2025-09-03 18:32:37,1524401
2025-09-03 18:32:37,1523829
2025-09-03 18:32:37,1523222
2025-09-03 18:32:37,1522613
2025-09-03 18:32:37,1521918
2025-09-03 18:32:37,1521179
2025-09-03 18:32:37,1520530
2025-09-03 18:32:37,1520236
2025-09-03 18:32:37,1520032
2025-09-03 18:32:37,1519922
2025-09-03 18:32:37,1520096
2025-09-03 18:32:37,1520143
2025-09-03 18:32:37,1520363
2025-09-03 18:32:37,1520398
2025-09-03 18:32:37,1520538
2025-09-03 18:32:37,1520578
2025-09-03 18:32:37,1520774
2025-09-03 18:32:37,1520954
2025-09-03 18:32:37,1521114
2025-09-03 18:32:37,1521244
2025-09-03 18:32:37,1521399
2025-09-03 18:32:37,1521526
2025-09-03 18:32:37,1521676
2025-09-03 18:32:37,1521791
2025-09-03 18:32:37,1521773
2025-09-03 18:32:37,1521972
2025-09-03 18:32:37,1521973
2025-09-03 18:32:37,1521963
2025-09-03 18:32:37,1521904
2025-09-03 18:32:37,1521877
2025-09-03 18:32:37,1521676
2025-09-03 18:32:37,1521668
2025-09-03 18:32:37,1521851
2025-09-03 18:32:37,1521860
2025-09-03 18:32:37,1521839
2025-09-03 18:32:37,1521914
2025-09-03 18:32:37,1521997
2025-09-03 18:32:37,1522066
2025-09-03 18:32:37,1522186
2025-09-03 18:32:37,1522277
2025-09-03 18:32:37,1522390
2025-09-03 18:32:37,1522540
2025-09-03 18:32:37,1522691
2025-09-03 18:32:37,1522805
2025-09-03 18:32:37,1522797
2025-09-03 18:32:37,1522941
2025-09-03 18:32:37,1523212
2025-09-03 18:32:37,1523461
2025-09-03 18:32:37,1523638
2025-09-03 18:32:37,1523816
2025-09-03 18:32:37,1523819
2025-09-03 18:32:38,1524033
2025-09-03 18:32:38,1524081
2025-09-03 18:32:38,1524151
2025-09-03 18:32:38,1524126
2025-09-03 18:32:38,1524296
2025-09-03 18:32:38,1524354
2025-09-03 18:32:38,1524424
2025-09-03 18:32:38,1524444
2025-09-03 18:32:38,1524478
2025-09-03 18:32:38,1524688
2025-09-03 18:32:38,1524769
2025-09-03 18:32:38,1524937
2025-09-03 18:32:38,1524964
2025-09-03 18:32:38,1525120
2025-09-03 18:32:38,1525218
2025-09-03 18:32:38,1525438
2025-09-03 18:32:38,1525429
2025-09-03 18:32:38,1525593
2025-09-03 18:32:38,1525433
2025-09-03 18:32:38,1524909
2025-09-03 18:32:38,1524374
2025-09-03 18:32:38,1523850
2025-09-03 18:32:38,1523113
2025-09-03 18:32:38,1522375
2025-09-03 18:32:38,1521957
2025-09-03 18:32:38,1521534
2025-09-03 18:32:38,1521447
2025-09-03 18:32:38,1521440
2025-09-03 18:32:38,1521491
2025-09-03 18:32:38,1521713
2025-09-03 18:32:38,1521802
2025-09-03 18:32:38,1521888
2025-09-03 18:32:38,1522113
2025-09-03 18:32:38,1522303
2025-09-03 18:32:38,1522436
2025-09-03 18:32:38,1522548
2025-09-03 18:32:38,1522642
2025-09-03 18:32:38,1522738
2025-09-03 18:32:38,1523005
2025-09-03 18:32:38,1523066
2025-09-03 18:32:38,1523274
2025-09-03 18:32:38,1523363
2025-09-03 18:32:38,1523595
2025-09-03 18:32:38,1523653
2025-09-03 18:32:38,1523587
2025-09-03 18:32:38,1523544
2025-09-03 18:32:38,1523483
2025-09-03 18:32:38,1523373
2025-09-03 18:32:38,1523314
2025-09-03 18:32:38,1523095
2025-09-03 18:32:38,1523175
2025-09-03 18:32:38,1523270
2025-09-03 18:32:38,1523281
2025-09-03 18:32:38,1523210
2025-09-03 18:32:38,1523283
2025-09-03 18:32:38,1523294
2025-09-03 18:32:38,1523394
2025-09-03 18:32:38,1523535
2025-09-03 18:32:38,1523596
2025-09-03 18:32:38,1523817
2025-09-03 18:32:38,1523937
2025-09-03 18:32:38,1524040
2025-09-03 18:32:38,1524223
2025-09-03 18:32:38,1524404
2025-09-03 18:32:38,1524605
2025-09-03 18:32:38,1524721
2025-09-03 18:32:38,1524962
2025-09-03 18:32:38,1524991
2025-09-03 18:32:38,1525262
2025-09-03 18:32:38,1525416
2025-09-03 18:32:38,1525498
2025-09-03 18:32:38,1525633
2025-09-03 18:32:38,1525689
2025-09-03 18:32:38,1525855
2025-09-03 18:32:38,1526006
2025-09-03 18:32:38,1526037
2025-09-03 18:32:38,1526226
2025-09-03 18:32:38,1526232
2025-09-03 18:32:38,1526349
2025-09-03 18:32:38,1526419
2025-09-03 18:32:38,1526546
2025-09-03 18:32:38,1526710
2025-09-03 18:32:38,1526794
2025-09-03 18:32:38,1526712
2025-09-03 18:32:38,1526207
2025-09-03 18:32:38,1525516
2025-09-03 18:32:38,1524915
2025-09-03 18:32:38,1524287
2025-09-03 18:32:38,1523445
2025-09-03 18:32:38,1522827
2025-09-03 18:32:38,1522336
2025-09-03 18:32:38,1522005
2025-09-03 18:32:38,1522039
2025-09-03 18:32:38,1522081
2025-09-03 18:32:38,1522232
2025-09-03 18:32:38,1522318
2025-09-03 18:32:38,1522410
2025-09-03 18:32:38,1522566
2025-09-03 18:32:38,1522618
2025-09-03 18:32:38,1522805
2025-09-03 18:32:39,1522892
2025-09-03 18:32:39,1523088
2025-09-03 18:32:39,1523169
2025-09-03 18:32:39,1523214
2025-09-03 18:32:39,1523444
2025-09-03 18:32:39,1523668
2025-09-03 18:32:39,1523801
2025-09-03 18:32:39,1523831
2025-09-03 18:32:39,1523847
2025-09-03 18:32:39,1523864
2025-09-03 18:32:39,1523781
2025-09-03 18:32:39,1523672
2025-09-03 18:32:39,1523696
2025-09-03 18:32:39,1523688
2025-09-03 18:32:39,1523657
2025-09-03 18:32:39,1523449
2025-09-03 18:32:39,1523535
2025-09-03 18:32:39,1523610
2025-09-03 18:32:39,1523748
2025-09-03 18:32:39,1523685
2025-09-03 18:32:39,1523814
2025-09-03 18:32:39,1523941
2025-09-03 18:32:39,1524013
2025-09-03 18:32:39,1524095
2025-09-03 18:32:39,1524258
2025-09-03 18:32:39,1524414
2025-09-03 18:32:39,1524396
2025-09-03 18:32:39,1524622
2025-09-03 18:32:39,1524892
2025-09-03 18:32:39,1524866
2025-09-03 18:32:39,1525195
2025-09-03 18:32:39,1525284
2025-09-03 18:32:39,1525429
2025-09-03 18:32:39,1525507
2025-09-03 18:32:39,1525678
2025-09-03 18:32:39,1525807
2025-09-03 18:32:39,1525938
2025-09-03 18:32:39,1525994
2025-09-03 18:32:39,1526030
2025-09-03 18:32:39,1526181
2025-09-03 18:32:39,1526221
2025-09-03 18:32:39,1526323
2025-09-03 18:32:39,1526466
2025-09-03 18:32:39,1526525
2025-09-03 18:32:39,1526653
2025-09-03 18:32:39,1526726
2025-09-03 18:32:39,1526875
2025-09-03 18:32:39,1527016
2025-09-03 18:32:39,1526891
2025-09-03 18:32:39,1526454
2025-09-03 18:32:39,1525858
2025-09-03 18:32:39,1525150
2025-09-03 18:32:39,1524259
2025-09-03 18:32:39,1523319
2025-09-03 18:32:39,1522626
2025-09-03 18:32:39,1522120
2025-09-03 18:32:39,1521694
2025-09-03 18:32:39,1521639
2025-09-03 18:32:39,1521563
2025-09-03 18:32:39,1521643
2025-09-03 18:32:39,1521807
2025-09-03 18:32:39,1521887
2025-09-03 18:32:39,1522071
2025-09-03 18:32:39,1522197
2025-09-03 18:32:39,1522227
2025-09-03 18:32:39,1522362
2025-09-03 18:32:39,1522464
2025-09-03 18:32:39,1522495
2025-09-03 18:32:39,1522490
2025-09-03 18:32:39,1522630
2025-09-03 18:32:39,1522735
2025-09-03 18:32:39,1522774
2025-09-03 18:32:39,1522865
2025-09-03 18:32:39,1522849
2025-09-03 18:32:39,1522927
2025-09-03 18:32:39,1522938
2025-09-03 18:32:39,1522869
2025-09-03 18:32:39,1522758
2025-09-03 18:32:39,1522800
2025-09-03 18:32:39,1522829
2025-09-03 18:32:39,1522816
2025-09-03 18:32:39,1522759
2025-09-03 18:32:39,1522735
2025-09-03 18:32:39,1522708
2025-09-03 18:32:39,1522842
2025-09-03 18:32:39,1522866
2025-09-03 18:32:39,1522885
2025-09-03 18:32:39,1523099
2025-09-03 18:32:39,1523167
2025-09-03 18:32:39,1523248
2025-09-03 18:32:39,1523374
2025-09-03 18:32:39,1523378
2025-09-03 18:32:39,1523581
2025-09-03 18:32:39,1523683
2025-09-03 18:32:39,1523848
2025-09-03 18:32:39,1523980
2025-09-03 18:32:39,1524010
2025-09-03 18:32:39,1524145
2025-09-03 18:32:39,1524244
2025-09-03 18:32:39,1524369
2025-09-03 18:32:39,1524507
2025-09-03 18:32:40,1524653
2025-09-03 18:32:40,1524622
2025-09-03 18:32:40,1524695
2025-09-03 18:32:40,1524802
2025-09-03 18:32:40,1524817
2025-09-03 18:32:40,1525004
2025-09-03 18:32:40,1525089
2025-09-03 18:32:40,1525206
2025-09-03 18:32:40,1525244
2025-09-03 18:32:40,1525362
2025-09-03 18:32:40,1525468
2025-09-03 18:32:40,1525428
2025-09-03 18:32:40,1525423
2025-09-03 18:32:40,1525144
2025-09-03 18:32:40,1524517
2025-09-03 18:32:40,1523756
2025-09-03 18:32:40,1522853
2025-09-03 18:32:40,1521931
2025-09-03 18:32:40,1521228
2025-09-03 18:32:40,1520757
2025-09-03 18:32:40,1520361
2025-09-03 18:32:40,1520321
2025-09-03 18:32:40,1520285
2025-09-03 18:32:40,1520312
2025-09-03 18:32:40,1520404
2025-09-03 18:32:40,1520518
2025-09-03 18:32:40,1520562
2025-09-03 18:32:40,1520699
2025-09-03 18:32:40,1520773
2025-09-03 18:32:40,1520968
2025-09-03 18:32:40,1520881
2025-09-03 18:32:40,1521009
2025-09-03 18:32:40,1520953
2025-09-03 18:32:40,1521011
2025-09-03 18:32:40,1521068
2025-09-03 18:32:40,1521072
2025-09-03 18:32:40,1521155
2025-09-03 18:32:40,1521240
2025-09-03 18:32:40,1521149
2025-09-03 18:32:40,1521167
2025-09-03 18:32:40,1521227
2025-09-03 18:32:40,1521122
2025-09-03 18:32:40,1521106
2025-09-03 18:32:40,1521021
2025-09-03 18:32:40,1521046
2025-09-03 18:32:40,1521006
2025-09-03 18:32:40,1521009
2025-09-03 18:32:40,1521079
2025-09-03 18:32:40,1521129
2025-09-03 18:32:40,1521140
2025-09-03 18:32:40,1521158
2025-09-03 18:32:40,1521217
2025-09-03 18:32:40,1521322
2025-09-03 18:32:40,1521426
2025-09-03 18:32:40,1521509
2025-09-03 18:32:40,1521507
2025-09-03 18:32:40,1521583
2025-09-03 18:32:40,1521744
2025-09-03 18:32:40,1521929
2025-09-03 18:32:40,1521857
2025-09-03 18:32:40,1522045
2025-09-03 18:32:40,1522124
2025-09-03 18:32:40,1522284
2025-09-03 18:32:40,1522281
2025-09-03 18:32:40,1522316
2025-09-03 18:32:40,1522344
2025-09-03 18:32:40,1522484
2025-09-03 18:32:40,1522502
2025-09-03 18:32:40,1522608
2025-09-03 18:32:40,1522567
2025-09-03 18:32:40,1522676
2025-09-03 18:32:40,1522737
2025-09-03 18:32:40,1522807
2025-09-03 18:32:40,1522851
2025-09-03 18:32:40,1522953
2025-09-03 18:32:40,1523158
2025-09-03 18:32:40,1523112
2025-09-03 18:32:40,1523215
2025-09-03 18:32:40,1523367
2025-09-03 18:32:40,1523351
2025-09-03 18:32:40,1523322
2025-09-03 18:32:40,1522869
2025-09-03 18:32:40,1522302
2025-09-03 18:32:40,1521718
2025-09-03 18:32:40,1520672
2025-09-03 18:32:40,1519848
2025-09-03 18:32:40,1519241
2025-09-03 18:32:40,1518774
2025-09-03 18:32:40,1518509
2025-09-03 18:32:40,1518356
2025-09-03 18:32:40,1518317
2025-09-03 18:32:40,1518495
2025-09-03 18:32:40,1518486
2025-09-03 18:32:40,1518694
2025-09-03 18:32:40,1518802
2025-09-03 18:32:40,1518877
2025-09-03 18:32:40,1518888
2025-09-03 18:32:40,1518983
2025-09-03 18:32:40,1518987
2025-09-03 18:32:40,1519014
2025-09-03 18:32:41,1518924
2025-09-03 18:32:41,1518984
2025-09-03 18:32:41,1519056
2025-09-03 18:32:41,1519148
2025-09-03 18:32:41,1519139
2025-09-03 18:32:41,1519100
2025-09-03 18:32:41,1519134
2025-09-03 18:32:41,1519158
2025-09-03 18:32:41,1519122
2025-09-03 18:32:41,1519009
2025-09-03 18:32:41,1518961
2025-09-03 18:32:41,1518890
2025-09-03 18:32:41,1518811
2025-09-03 18:32:41,1518911
2025-09-03 18:32:41,1518935
2025-09-03 18:32:41,1518905
2025-09-03 18:32:41,1519008
2025-09-03 18:32:41,1519032
2025-09-03 18:32:41,1519072
2025-09-03 18:32:41,1519145
2025-09-03 18:32:41,1519120
2025-09-03 18:32:41,1519299
2025-09-03 18:32:41,1519325
2025-09-03 18:32:41,1519416
2025-09-03 18:32:41,1519559
2025-09-03 18:32:41,1519581
2025-09-03 18:32:41,1519799
2025-09-03 18:32:41,1519855
2025-09-03 18:32:41,1519799
2025-09-03 18:32:41,1519979
2025-09-03 18:32:41,1520013
2025-09-03 18:32:41,1520094
2025-09-03 18:32:41,1520116
2025-09-03 18:32:41,1520235
2025-09-03 18:32:41,1520259
2025-09-03 18:32:41,1520332
2025-09-03 18:32:41,1520437
2025-09-03 18:32:41,1520492
2025-09-03 18:32:41,1520505
2025-09-03 18:32:41,1520607
2025-09-03 18:32:41,1520588
2025-09-03 18:32:41,1520724
2025-09-03 18:32:41,1520752
2025-09-03 18:32:41,1520850
2025-09-03 18:32:41,1520910
2025-09-03 18:32:41,1521091
2025-09-03 18:32:41,1521079
2025-09-03 18:32:41,1521223
2025-09-03 18:32:41,1521254
2025-09-03 18:32:41,1521306
2025-09-03 18:32:41,1521412
2025-09-03 18:32:41,1521041
2025-09-03 18:32:41,1520530
2025-09-03 18:32:41,1519980
2025-09-03 18:32:41,1519088
2025-09-03 18:32:41,1518149
2025-09-03 18:32:41,1517462
2025-09-03 18:32:41,1516950
2025-09-03 18:32:41,1516662
2025-09-03 18:32:41,1516551
2025-09-03 18:32:41,1516400
2025-09-03 18:32:41,1516553
2025-09-03 18:32:41,1516659
2025-09-03 18:32:41,1516723
2025-09-03 18:32:41,1516818
2025-09-03 18:32:41,1516871
2025-09-03 18:32:41,1516999
2025-09-03 18:32:41,1516974
2025-09-03 18:32:41,1517070
2025-09-03 18:32:41,1517032
2025-09-03 18:32:41,1517073
2025-09-03 18:32:41,1517119
2025-09-03 18:32:41,1517048
2025-09-03 18:32:41,1517170
2025-09-03 18:32:41,1517161
2025-09-03 18:32:41,1517141
2025-09-03 18:32:41,1517142
2025-09-03 18:32:41,1517150
2025-09-03 18:32:41,1517026
2025-09-03 18:32:41,1517045
2025-09-03 18:32:41,1517007
2025-09-03 18:32:41,1516852
2025-09-03 18:32:41,1516854
2025-09-03 18:32:41,1516896
2025-09-03 18:32:41,1516765
2025-09-03 18:32:41,1516850
2025-09-03 18:32:41,1516912
2025-09-03 18:32:41,1516947
2025-09-03 18:32:41,1516944
2025-09-03 18:32:41,1517067
2025-09-03 18:32:41,1517195
2025-09-03 18:32:41,1517225
2025-09-03 18:32:41,1517284
2025-09-03 18:32:41,1517393
2025-09-03 18:32:41,1517416
2025-09-03 18:32:41,1517483
2025-09-03 18:32:41,1517632
2025-09-03 18:32:41,1517629
2025-09-03 18:32:41,1517690
2025-09-03 18:32:41,1517747
2025-09-03 18:32:42,1517820
2025-09-03 18:32:42,1517752
2025-09-03 18:32:42,1517961
2025-09-03 18:32:42,1518010
2025-09-03 18:32:42,1518017
2025-09-03 18:32:42,1518108
2025-09-03 18:32:42,1518030
2025-09-03 18:32:42,1518171
2025-09-03 18:32:42,1518263
2025-09-03 18:32:42,1518263
2025-09-03 18:32:42,1518317
2025-09-03 18:32:42,1518368
2025-09-03 18:32:42,1518451
2025-09-03 18:32:42,1518485
2025-09-03 18:32:42,1518585
2025-09-03 18:32:42,1518615
2025-09-03 18:32:42,1518653
2025-09-03 18:32:42,1518840
2025-09-03 18:32:42,1518935
2025-09-03 18:32:42,1519128
2025-09-03 18:32:42,1519197
2025-09-03 18:32:42,1519160
2025-09-03 18:32:42,1519048
2025-09-03 18:32:42,1518591
2025-09-03 18:32:42,1518085
2025-09-03 18:32:42,1517168
2025-09-03 18:32:42,1516396
2025-09-03 18:32:42,1515727
2025-09-03 18:32:42,1515210
2025-09-03 18:32:42,1514925
2025-09-03 18:32:42,1514745
2025-09-03 18:32:42,1514633
2025-09-03 18:32:42,1514695
2025-09-03 18:32:42,1514964
2025-09-03 18:32:42,1514982
2025-09-03 18:32:42,1515084
2025-09-03 18:32:42,1515290
2025-09-03 18:32:42,1515282
2025-09-03 18:32:42,1515349
2025-09-03 18:32:42,1515386
2025-09-03 18:32:42,1515441
2025-09-03 18:32:42,1515378
2025-09-03 18:32:42,1515463
2025-09-03 18:32:42,1515631
2025-09-03 18:32:42,1515636
2025-09-03 18:32:42,1515780
2025-09-03 18:32:42,1515753
2025-09-03 18:32:42,1515718
2025-09-03 18:32:42,1515749
2025-09-03 18:32:42,1515689
2025-09-03 18:32:42,1515533
2025-09-03 18:32:42,1515542
2025-09-03 18:32:42,1515409
2025-09-03 18:32:42,1515359
2025-09-03 18:32:42,1515349
2025-09-03 18:32:42,1515414
2025-09-03 18:32:42,1515381
2025-09-03 18:32:42,1515505
2025-09-03 18:32:42,1515550
2025-09-03 18:32:42,1515671
2025-09-03 18:32:42,1515742
2025-09-03 18:32:42,1515809
2025-09-03 18:32:42,1515935
2025-09-03 18:32:42,1516037
2025-09-03 18:32:42,1516031
2025-09-03 18:32:42,1516209
2025-09-03 18:32:42,1516317
2025-09-03 18:32:42,1516292
2025-09-03 18:32:42,1516408
2025-09-03 18:32:42,1516537
2025-09-03 18:32:42,1516509
2025-09-03 18:32:42,1516595
2025-09-03 18:32:42,1516719
2025-09-03 18:32:42,1516756
2025-09-03 18:32:42,1516783
2025-09-03 18:32:42,1516838
2025-09-03 18:32:42,1516936
2025-09-03 18:32:42,1516971
2025-09-03 18:32:42,1517015
2025-09-03 18:32:42,1517149
2025-09-03 18:32:42,1517193
2025-09-03 18:32:42,1517195
2025-09-03 18:32:42,1517347
2025-09-03 18:32:42,1517359
2025-09-03 18:32:42,1517542
2025-09-03 18:32:42,1517618
2025-09-03 18:32:42,1517718
2025-09-03 18:32:42,1517854
2025-09-03 18:32:42,1517861
2025-09-03 18:32:42,1517895
2025-09-03 18:32:42,1517609
2025-09-03 18:32:42,1517062
2025-09-03 18:32:42,1516639
2025-09-03 18:32:42,1515675
2025-09-03 18:32:42,1514924
2025-09-03 18:32:42,1514346
2025-09-03 18:32:42,1514026
2025-09-03 18:32:42,1513740
2025-09-03 18:32:42,1513677
2025-09-03 18:32:42,1513670
2025-09-03 18:32:42,1513782
2025-09-03 18:32:43,1513905
2025-09-03 18:32:43,1514073
2025-09-03 18:32:43,1514265
2025-09-03 18:32:43,1514291
2025-09-03 18:32:43,1514421
2025-09-03 18:32:43,1514512
2025-09-03 18:32:43,1514583
2025-09-03 18:32:43,1514573
2025-09-03 18:32:43,1514693
2025-09-03 18:32:43,1514849
2025-09-03 18:32:43,1514840
2025-09-03 18:32:43,1514953
2025-09-03 18:32:43,1514901
2025-09-03 18:32:43,1514990
2025-09-03 18:32:43,1515033
2025-09-03 18:32:43,1514946
2025-09-03 18:32:43,1514885
2025-09-03 18:32:43,1514764
2025-09-03 18:32:43,1514719
2025-09-03 18:32:43,1514728
2025-09-03 18:32:43,1514634
2025-09-03 18:32:43,1514646
2025-09-03 18:32:43,1514693
2025-09-03 18:32:43,1514778
2025-09-03 18:32:43,1514765
2025-09-03 18:32:43,1514891
2025-09-03 18:32:43,1514963
2025-09-03 18:32:43,1514930
2025-09-03 18:32:43,1515151
2025-09-03 18:32:43,1515226
2025-09-03 18:32:43,1515350
2025-09-03 18:32:43,1515434
2025-09-03 18:32:43,1515579
2025-09-03 18:32:43,1515695
2025-09-03 18:32:43,1515816
2025-09-03 18:32:43,1515890
2025-09-03 18:32:43,1515962
2025-09-03 18:32:43,1516030
2025-09-03 18:32:43,1516170
2025-09-03 18:32:43,1516234
2025-09-03 18:32:43,1516259
2025-09-03 18:32:43,1516360
2025-09-03 18:32:43,1516549
2025-09-03 18:32:43,1516526
2025-09-03 18:32:43,1516610
2025-09-03 18:32:43,1516603
2025-09-03 18:32:43,1516749
2025-09-03 18:32:43,1516725
2025-09-03 18:32:43,1516933
2025-09-03 18:32:43,1517018
2025-09-03 18:32:43,1517028
2025-09-03 18:32:43,1517238
2025-09-03 18:32:43,1517218
2025-09-03 18:32:43,1517396
2025-09-03 18:32:43,1517444
2025-09-03 18:32:43,1517513
2025-09-03 18:32:43,1517531
2025-09-03 18:32:43,1517244
2025-09-03 18:32:43,1516684
2025-09-03 18:32:43,1516077
2025-09-03 18:32:43,1515164
2025-09-03 18:32:43,1514313
2025-09-03 18:32:43,1513810
2025-09-03 18:32:43,1513354
2025-09-03 18:32:43,1513103
2025-09-03 18:32:43,1512924
2025-09-03 18:32:43,1512831
2025-09-03 18:32:43,1512960
2025-09-03 18:32:43,1513046
2025-09-03 18:32:43,1513281
2025-09-03 18:32:43,1513360
2025-09-03 18:32:43,1513555
2025-09-03 18:32:43,1513518
2025-09-03 18:32:43,1513612
2025-09-03 18:32:43,1513614
2025-09-03 18:32:43,1513671
2025-09-03 18:32:43,1513661
2025-09-03 18:32:43,1513795
2025-09-03 18:32:43,1513889
2025-09-03 18:32:43,1513928
2025-09-03 18:32:43,1513874
2025-09-03 18:32:43,1513960
2025-09-03 18:32:43,1514038
2025-09-03 18:32:43,1513919
2025-09-03 18:32:43,1513948
2025-09-03 18:32:43,1513940
2025-09-03 18:32:43,1513876
2025-09-03 18:32:43,1513844
2025-09-03 18:32:43,1513755
2025-09-03 18:32:43,1513795
2025-09-03 18:32:43,1513816
2025-09-03 18:32:43,1513785
2025-09-03 18:32:43,1513827
2025-09-03 18:32:43,1513989
2025-09-03 18:32:43,1514104
2025-09-03 18:32:43,1514095
2025-09-03 18:32:43,1514209
2025-09-03 18:32:43,1514355
2025-09-03 18:32:43,1514444
2025-09-03 18:32:44,1514598
2025-09-03 18:32:44,1514664
2025-09-03 18:32:44,1514835
2025-09-03 18:32:44,1514913
2025-09-03 18:32:44,1515059
2025-09-03 18:32:44,1515150
2025-09-03 18:32:44,1515251
2025-09-03 18:32:44,1515340
2025-09-03 18:32:44,1515417
2025-09-03 18:32:44,1515504
2025-09-03 18:32:44,1515598
2025-09-03 18:32:44,1515609
2025-09-03 18:32:44,1515674
2025-09-03 18:32:44,1515701
2025-09-03 18:32:44,1515901
2025-09-03 18:32:44,1515958
2025-09-03 18:32:44,1515994
2025-09-03 18:32:44,1515995
2025-09-03 18:32:44,1516163
2025-09-03 18:32:44,1516328
2025-09-03 18:32:44,1516452
2025-09-03 18:32:44,1516466
2025-09-03 18:32:44,1516502
2025-09-03 18:32:44,1516742
2025-09-03 18:32:44,1516753
2025-09-03 18:32:44,1516902
2025-09-03 18:32:44,1516933
2025-09-03 18:32:44,1516867
2025-09-03 18:32:44,1516658
2025-09-03 18:32:44,1516067
2025-09-03 18:32:44,1515330
2025-09-03 18:32:44,1514436
2025-09-03 18:32:44,1513469
2025-09-03 18:32:44,1512906
2025-09-03 18:32:44,1512434
2025-09-03 18:32:44,1512138
2025-09-03 18:32:44,1511985
2025-09-03 18:32:44,1511985
2025-09-03 18:32:44,1512032
2025-09-03 18:32:44,1512124
2025-09-03 18:32:44,1512238
2025-09-03 18:32:44,1512382
2025-09-03 18:32:44,1512463
2025-09-03 18:32:44,1512463
2025-09-03 18:32:44,1512493
2025-09-03 18:32:44,1512533
2025-09-03 18:32:44,1512503
2025-09-03 18:32:44,1512452
2025-09-03 18:32:44,1512461
2025-09-03 18:32:44,1512442
2025-09-03 18:32:44,1512580
2025-09-03 18:32:44,1512648
2025-09-03 18:32:44,1512627
2025-09-03 18:32:44,1512729
2025-09-03 18:32:44,1512673
2025-09-03 18:32:44,1512777
2025-09-03 18:32:44,1512737
2025-09-03 18:32:44,1512724
2025-09-03 18:32:44,1512755
2025-09-03 18:32:44,1512743
2025-09-03 18:32:44,1512801
2025-09-03 18:32:44,1512753
2025-09-03 18:32:44,1512840
2025-09-03 18:32:44,1512892
2025-09-03 18:32:44,1512943
2025-09-03 18:32:44,1513029
2025-09-03 18:32:44,1513094
2025-09-03 18:32:44,1513210
2025-09-03 18:32:44,1513372
2025-09-03 18:32:44,1513442
2025-09-03 18:32:44,1513549
2025-09-03 18:32:44,1513622
2025-09-03 18:32:44,1513807
2025-09-03 18:32:44,1513878
2025-09-03 18:32:44,1514001
2025-09-03 18:32:44,1514011
2025-09-03 18:32:44,1514169
2025-09-03 18:32:44,1514234
2025-09-03 18:32:44,1514396
2025-09-03 18:32:44,1514512
2025-09-03 18:32:44,1514618
2025-09-03 18:32:44,1514691
2025-09-03 18:32:44,1514757
2025-09-03 18:32:44,1514750
2025-09-03 18:32:44,1514867
2025-09-03 18:32:44,1514919
2025-09-03 18:32:44,1515091
2025-09-03 18:32:44,1515110
2025-09-03 18:32:44,1515231
2025-09-03 18:32:44,1515307
2025-09-03 18:32:44,1515464
2025-09-03 18:32:44,1515594
2025-09-03 18:32:44,1515527
2025-09-03 18:32:44,1515759
2025-09-03 18:32:44,1515832
2025-09-03 18:32:44,1516041
2025-09-03 18:32:44,1516161
2025-09-03 18:32:44,1516356
2025-09-03 18:32:44,1516473
2025-09-03 18:32:44,1516543
2025-09-03 18:32:45,1516432
2025-09-03 18:32:45,1516079
2025-09-03 18:32:45,1515470
2025-09-03 18:32:45,1514633
2025-09-03 18:32:45,1513540
2025-09-03 18:32:45,1512658
2025-09-03 18:32:45,1512085
2025-09-03 18:32:45,1511660
2025-09-03 18:32:45,1511424
2025-09-03 18:32:45,1511221
2025-09-03 18:32:45,1511261
2025-09-03 18:32:45,1511406
2025-09-03 18:32:45,1511463
2025-09-03 18:32:45,1511586
2025-09-03 18:32:45,1511685
2025-09-03 18:32:45,1511804
2025-09-03 18:32:45,1511845
2025-09-03 18:32:45,1511848
2025-09-03 18:32:45,1511839
2025-09-03 18:32:45,1511754
2025-09-03 18:32:45,1511822
2025-09-03 18:32:45,1511803
2025-09-03 18:32:45,1511898
2025-09-03 18:32:45,1511939
2025-09-03 18:32:45,1512097
2025-09-03 18:32:45,1512129
2025-09-03 18:32:45,1512119
2025-09-03 18:32:45,1512176
2025-09-03 18:32:45,1512192
