timestamp,value
2025-09-02 23:51:32,1324920
2025-09-02 23:51:32,1324314
2025-09-02 23:51:32,1323764
2025-09-02 23:51:32,1323548
2025-09-02 23:51:32,1323490
2025-09-02 23:51:32,1323638
2025-09-02 23:51:32,1323841
2025-09-02 23:51:32,1323969
2025-09-02 23:51:32,1324133
2025-09-02 23:51:32,1324254
2025-09-02 23:51:32,1324348
2025-09-02 23:51:32,1324403
2025-09-02 23:51:32,1324391
2025-09-02 23:51:32,1324451
2025-09-02 23:51:32,1324389
2025-09-02 23:51:32,1324287
2025-09-02 23:51:32,1324076
2025-09-02 23:51:32,1324001
2025-09-02 23:51:32,1323565
2025-09-02 23:51:32,1323334
2025-09-02 23:51:32,1322858
2025-09-02 23:51:32,1322702
2025-09-02 23:51:32,1322526
2025-09-02 23:51:32,1322346
2025-09-02 23:51:32,1322234
2025-09-02 23:51:32,1321717
2025-09-02 23:51:32,1321045
2025-09-02 23:51:32,1320405
2025-09-02 23:51:32,1319724
2025-09-02 23:51:32,1318775
2025-09-02 23:51:32,1317532
2025-09-02 23:51:32,1315926
2025-09-02 23:51:32,1315110
2025-09-02 23:51:32,1314776
2025-09-02 23:51:32,1313572
2025-09-02 23:51:32,1312436
2025-09-02 23:51:32,1311269
2025-09-02 23:51:32,1310396
2025-09-02 23:51:32,1309759
2025-09-02 23:51:32,1309322
2025-09-02 23:51:32,1308770
2025-09-02 23:51:32,1308765
2025-09-02 23:51:32,1308668
2025-09-02 23:51:32,1308418
2025-09-02 23:51:32,1308277
2025-09-02 23:51:32,1308077
2025-09-02 23:51:32,1307361
2025-09-02 23:51:32,1306358
2025-09-02 23:51:32,1306209
2025-09-02 23:51:32,1306157
2025-09-02 23:51:32,1306452
2025-09-02 23:51:32,1306696
2025-09-02 23:51:32,1306820
2025-09-02 23:51:32,1306825
2025-09-02 23:51:32,1307008
2025-09-02 23:51:32,1307697
2025-09-02 23:51:32,1308483
2025-09-02 23:51:32,1309427
2025-09-02 23:51:32,1310289
2025-09-02 23:51:32,1311262
2025-09-02 23:51:32,1311885
2025-09-02 23:51:32,1312299
2025-09-02 23:51:32,1312076
2025-09-02 23:51:32,1311489
2025-09-02 23:51:32,1310980
2025-09-02 23:51:32,1310843
2025-09-02 23:51:32,1310989
2025-09-02 23:51:32,1311408
2025-09-02 23:51:32,1311962
2025-09-02 23:51:32,1312299
2025-09-02 23:51:32,1312627
2025-09-02 23:51:32,1312925
2025-09-02 23:51:32,1313366
2025-09-02 23:51:32,1313672
2025-09-02 23:51:32,1313775
2025-09-02 23:51:32,1313511
2025-09-02 23:51:32,1312911
2025-09-02 23:51:32,1312301
2025-09-02 23:51:32,1311692
2025-09-02 23:51:32,1311119
2025-09-02 23:51:32,1310166
2025-09-02 23:51:32,1309115
2025-09-02 23:51:32,1308142
2025-09-02 23:51:32,1306906
2025-09-02 23:51:32,1305560
2025-09-02 23:51:32,1304168
2025-09-02 23:51:32,1302858
2025-09-02 23:51:32,1301612
2025-09-02 23:51:32,1300201
2025-09-02 23:51:32,1298531
2025-09-02 23:51:32,1296004
2025-09-02 23:51:32,1292392
2025-09-02 23:51:33,1289050
2025-09-02 23:51:33,1285586
2025-09-02 23:51:33,1281858
2025-09-02 23:51:33,1277630
2025-09-02 23:51:33,1273179
2025-09-02 23:51:33,1268266
2025-09-02 23:51:33,1261909
2025-09-02 23:51:33,1253941
2025-09-02 23:51:33,1245571
2025-09-02 23:51:33,1237404
2025-09-02 23:51:33,1230089
2025-09-02 23:51:33,1224350
2025-09-02 23:51:33,1219338
2025-09-02 23:51:33,1214927
2025-09-02 23:51:33,1211236
2025-09-02 23:51:33,1208542
2025-09-02 23:51:33,1206434
2025-09-02 23:51:33,1204825
2025-09-02 23:51:33,1203624
2025-09-02 23:51:33,1202719
2025-09-02 23:51:33,1202139
2025-09-02 23:51:33,1202317
2025-09-02 23:51:33,1202789
2025-09-02 23:51:33,1203421
2025-09-02 23:51:33,1204224
2025-09-02 23:51:33,1205242
2025-09-02 23:51:33,1206481
2025-09-02 23:51:33,1207763
2025-09-02 23:51:33,1208755
2025-09-02 23:51:33,1209723
2025-09-02 23:51:33,1210213
2025-09-02 23:51:33,1210444
2025-09-02 23:51:33,1210423
2025-09-02 23:51:33,1210086
2025-09-02 23:51:33,1209533
2025-09-02 23:51:33,1208810
2025-09-02 23:51:33,1207885
2025-09-02 23:51:33,1206835
2025-09-02 23:51:33,1205609
2025-09-02 23:51:33,1204205
2025-09-02 23:51:33,1202858
2025-09-02 23:51:33,1201356
2025-09-02 23:51:33,1200063
2025-09-02 23:51:33,1199031
2025-09-02 23:51:33,1198035
2025-09-02 23:51:33,1197208
2025-09-02 23:51:33,1196492
2025-09-02 23:51:33,1195942
2025-09-02 23:51:33,1195066
2025-09-02 23:51:33,1194131
2025-09-02 23:51:33,1193602
2025-09-02 23:51:33,1194187
2025-09-02 23:51:33,1195188
2025-09-02 23:51:33,1195972
2025-09-02 23:51:33,1195617
2025-09-02 23:51:33,1194512
2025-09-02 23:51:33,1192104
2025-09-02 23:51:33,1188291
2025-09-02 23:51:33,1183561
2025-09-02 23:51:33,1178190
2025-09-02 23:51:33,1172151
2025-09-02 23:51:33,1165493
2025-09-02 23:51:33,1157901
2025-09-02 23:51:33,1148056
2025-09-02 23:51:33,1136737
2025-09-02 23:51:33,1126816
2025-09-02 23:51:33,1118452
2025-09-02 23:51:33,1110283
2025-09-02 23:51:33,1102500
2025-09-02 23:51:33,1097230
2025-09-02 23:51:33,1093455
2025-09-02 23:51:33,1089512
2025-09-02 23:51:33,1086288
2025-09-02 23:51:33,1083863
2025-09-02 23:51:33,1081893
2025-09-02 23:51:33,1080929
2025-09-02 23:51:33,1080914
2025-09-02 23:51:33,1081106
2025-09-02 23:51:33,1081302
2025-09-02 23:51:33,1081515
2025-09-02 23:51:33,1081591
2025-09-02 23:51:33,1081490
2025-09-02 23:51:33,1081070
2025-09-02 23:51:33,1080547
2025-09-02 23:51:33,1079809
2025-09-02 23:51:33,1079088
2025-09-02 23:51:33,1078118
2025-09-02 23:51:33,1077094
2025-09-02 23:51:33,1075810
2025-09-02 23:51:33,1074453
2025-09-02 23:51:33,1073083
2025-09-02 23:51:33,1071620
2025-09-02 23:51:33,1070376
2025-09-02 23:51:33,1069182
2025-09-02 23:51:33,1068113
2025-09-02 23:51:33,1067118
2025-09-02 23:51:33,1066079
2025-09-02 23:51:33,1064963
2025-09-02 23:51:33,1063970
2025-09-02 23:51:33,1062922
2025-09-02 23:51:33,1061769
2025-09-02 23:51:34,1060640
2025-09-02 23:51:34,1059631
2025-09-02 23:51:34,1058648
2025-09-02 23:51:34,1057819
2025-09-02 23:51:34,1056953
2025-09-02 23:51:34,1056180
2025-09-02 23:51:34,1055579
2025-09-02 23:51:34,1055011
2025-09-02 23:51:34,1054606
2025-09-02 23:51:34,1054210
2025-09-02 23:51:34,1053879
2025-09-02 23:51:34,1053524
2025-09-02 23:51:34,1053113
2025-09-02 23:51:34,1052791
2025-09-02 23:51:34,1052485
2025-09-02 23:51:34,1052243
2025-09-02 23:51:34,1051956
2025-09-02 23:51:34,1051727
2025-09-02 23:51:34,1051523
2025-09-02 23:51:34,1051499
2025-09-02 23:51:34,1051581
2025-09-02 23:51:34,1051631
2025-09-02 23:51:34,1051851
2025-09-02 23:51:34,1052091
2025-09-02 23:51:34,1052725
2025-09-02 23:51:34,1053275
2025-09-02 23:51:34,1053656
2025-09-02 23:51:34,1053647
2025-09-02 23:51:34,1053243
2025-09-02 23:51:34,1052502
2025-09-02 23:51:34,1051687
2025-09-02 23:51:34,1051005
2025-09-02 23:51:34,1050346
2025-09-02 23:51:34,1049794
2025-09-02 23:51:34,1049137
2025-09-02 23:51:34,1048638
2025-09-02 23:51:34,1047940
2025-09-02 23:51:34,1047322
2025-09-02 23:51:34,1046939
2025-09-02 23:51:34,1046553
2025-09-02 23:51:34,1046154
2025-09-02 23:51:34,1046000
2025-09-02 23:51:34,1045794
2025-09-02 23:51:34,1045832
2025-09-02 23:51:34,1045901
2025-09-02 23:51:34,1046196
2025-09-02 23:51:34,1046229
2025-09-02 23:51:34,1046274
2025-09-02 23:51:34,1045873
2025-09-02 23:51:34,1045489
2025-09-02 23:51:34,1044873
2025-09-02 23:51:34,1044255
2025-09-02 23:51:34,1043358
2025-09-02 23:51:34,1042741
2025-09-02 23:51:34,1042224
2025-09-02 23:51:34,1041583
2025-09-02 23:51:34,1041028
2025-09-02 23:51:34,1040279
2025-09-02 23:51:34,1039642
2025-09-02 23:51:34,1039013
2025-09-02 23:51:34,1038515
2025-09-02 23:51:34,1038270
2025-09-02 23:51:34,1038090
2025-09-02 23:51:34,1037849
2025-09-02 23:51:34,1037552
2025-09-02 23:51:34,1037262
2025-09-02 23:51:34,1036875
2025-09-02 23:51:34,1036825
2025-09-02 23:51:34,1036877
2025-09-02 23:51:34,1036834
2025-09-02 23:51:34,1036677
2025-09-02 23:51:34,1036532
2025-09-02 23:51:34,1036468
2025-09-02 23:51:34,1036392
2025-09-02 23:51:34,1036340
2025-09-02 23:51:34,1036166
2025-09-02 23:51:34,1036045
2025-09-02 23:51:34,1035711
2025-09-02 23:51:34,1035544
2025-09-02 23:51:34,1035288
2025-09-02 23:51:34,1035108
2025-09-02 23:51:34,1035186
2025-09-02 23:51:34,1035351
2025-09-02 23:51:34,1035746
2025-09-02 23:51:34,1035914
2025-09-02 23:51:34,1035826
2025-09-02 23:51:34,1035670
2025-09-02 23:51:34,1035466
2025-09-02 23:51:34,1035244
2025-09-02 23:51:34,1035058
2025-09-02 23:51:34,1034994
2025-09-02 23:51:34,1034808
2025-09-02 23:51:34,1034753
2025-09-02 23:51:34,1034739
2025-09-02 23:51:34,1034580
2025-09-02 23:51:34,1034605
2025-09-02 23:51:34,1034677
2025-09-02 23:51:34,1034802
2025-09-02 23:51:34,1034890
2025-09-02 23:51:35,1034663
2025-09-02 23:51:35,1034357
2025-09-02 23:51:35,1034027
2025-09-02 23:51:35,1033769
2025-09-02 23:51:35,1033829
2025-09-02 23:51:35,1033870
2025-09-02 23:51:35,1034027
2025-09-02 23:51:35,1034439
2025-09-02 23:51:35,1034899
2025-09-02 23:51:35,1035410
2025-09-02 23:51:35,1035843
2025-09-02 23:51:35,1036078
2025-09-02 23:51:35,1036253
2025-09-02 23:51:35,1036222
2025-09-02 23:51:35,1036219
2025-09-02 23:51:35,1035970
2025-09-02 23:51:35,1035897
2025-09-02 23:51:35,1035653
2025-09-02 23:51:35,1035287
2025-09-02 23:51:35,1034963
2025-09-02 23:51:35,1034942
2025-09-02 23:51:35,1034878
2025-09-02 23:51:35,1034845
2025-09-02 23:51:35,1034722
2025-09-02 23:51:35,1034520
2025-09-02 23:51:35,1034380
2025-09-02 23:51:35,1034345
2025-09-02 23:51:35,1034123
2025-09-02 23:51:35,1033936
2025-09-02 23:51:35,1033737
2025-09-02 23:51:35,1033531
2025-09-02 23:51:35,1033280
2025-09-02 23:51:35,1033052
2025-09-02 23:51:35,1032923
2025-09-02 23:51:35,1032797
2025-09-02 23:51:35,1032533
2025-09-02 23:51:35,1032606
2025-09-02 23:51:35,1032523
2025-09-02 23:51:35,1032641
2025-09-02 23:51:35,1032751
2025-09-02 23:51:35,1032860
2025-09-02 23:51:35,1032895
2025-09-02 23:51:35,1032961
2025-09-02 23:51:35,1032820
2025-09-02 23:51:35,1032601
2025-09-02 23:51:35,1032365
2025-09-02 23:51:35,1032119
2025-09-02 23:51:35,1031878
2025-09-02 23:51:35,1031766
2025-09-02 23:51:35,1031590
2025-09-02 23:51:35,1031436
2025-09-02 23:51:35,1031302
2025-09-02 23:51:35,1031259
2025-09-02 23:51:35,1031244
2025-09-02 23:51:35,1031267
2025-09-02 23:51:35,1031226
2025-09-02 23:51:35,1031226
2025-09-02 23:51:35,1031264
2025-09-02 23:51:35,1031177
2025-09-02 23:51:35,1031184
2025-09-02 23:51:35,1031146
2025-09-02 23:51:35,1031092
2025-09-02 23:51:35,1031116
2025-09-02 23:51:35,1031116
2025-09-02 23:51:35,1030906
2025-09-02 23:51:35,1030712
2025-09-02 23:51:35,1030671
2025-09-02 23:51:35,1030668
2025-09-02 23:51:35,1030658
2025-09-02 23:51:35,1030437
2025-09-02 23:51:35,1030086
2025-09-02 23:51:35,1029575
2025-09-02 23:51:35,1029089
2025-09-02 23:51:35,1028712
2025-09-02 23:51:35,1028418
2025-09-02 23:51:35,1028081
2025-09-02 23:51:35,1027910
2025-09-02 23:51:35,1027882
2025-09-02 23:51:35,1027894
2025-09-02 23:51:35,1027852
2025-09-02 23:51:35,1027996
2025-09-02 23:51:35,1027807
2025-09-02 23:51:35,1027859
2025-09-02 23:51:35,1027764
2025-09-02 23:51:35,1027557
2025-09-02 23:51:35,1027314
2025-09-02 23:51:35,1027080
2025-09-02 23:51:35,1026918
2025-09-02 23:51:35,1026725
2025-09-02 23:51:35,1026578
2025-09-02 23:51:35,1026569
2025-09-02 23:51:35,1026502
2025-09-02 23:51:35,1026555
2025-09-02 23:51:35,1026422
2025-09-02 23:51:35,1026346
2025-09-02 23:51:35,1026175
2025-09-02 23:51:35,1026174
2025-09-02 23:51:35,1026044
2025-09-02 23:51:35,1025950
2025-09-02 23:51:35,1025756
2025-09-02 23:51:36,1025567
2025-09-02 23:51:36,1025468
2025-09-02 23:51:36,1025412
2025-09-02 23:51:36,1025412
2025-09-02 23:51:36,1025479
2025-09-02 23:51:36,1025504
2025-09-02 23:51:36,1025447
2025-09-02 23:51:36,1025332
2025-09-02 23:51:36,1025220
2025-09-02 23:51:36,1025110
2025-09-02 23:51:36,1025157
2025-09-02 23:51:36,1025013
2025-09-02 23:51:36,1024804
2025-09-02 23:51:36,1024592
2025-09-02 23:51:36,1024308
2025-09-02 23:51:36,1024351
2025-09-02 23:51:36,1024305
2025-09-02 23:51:36,1024190
2025-09-02 23:51:36,1024211
2025-09-02 23:51:36,1024100
2025-09-02 23:51:36,1024176
2025-09-02 23:51:36,1024210
2025-09-02 23:51:36,1024203
2025-09-02 23:51:36,1024292
2025-09-02 23:51:36,1024146
2025-09-02 23:51:36,1024197
2025-09-02 23:51:36,1024184
2025-09-02 23:51:36,1024198
2025-09-02 23:51:36,1024278
2025-09-02 23:51:36,1023986
2025-09-02 23:51:36,1023916
2025-09-02 23:51:36,1023655
2025-09-02 23:51:36,1023706
2025-09-02 23:51:36,1023655
2025-09-02 23:51:36,1023727
2025-09-02 23:51:36,1023543
2025-09-02 23:51:36,1023492
2025-09-02 23:51:36,1023221
2025-09-02 23:51:36,1022999
2025-09-02 23:51:36,1022861
2025-09-02 23:51:36,1022597
2025-09-02 23:51:36,1022592
2025-09-02 23:51:36,1022646
2025-09-02 23:51:36,1022707
2025-09-02 23:51:36,1022717
2025-09-02 23:51:36,1022799
2025-09-02 23:51:36,1022919
2025-09-02 23:51:36,1022997
2025-09-02 23:51:36,1023037
2025-09-02 23:51:36,1022913
2025-09-02 23:51:36,1022863
2025-09-02 23:51:36,1022741
2025-09-02 23:51:36,1022751
2025-09-02 23:51:36,1022732
2025-09-02 23:51:36,1022664
2025-09-02 23:51:36,1022484
2025-09-02 23:51:36,1022363
2025-09-02 23:51:36,1022243
2025-09-02 23:51:36,1022297
2025-09-02 23:51:36,1022303
2025-09-02 23:51:36,1022288
2025-09-02 23:51:36,1022249
2025-09-02 23:51:36,1022136
2025-09-02 23:51:36,1021958
2025-09-02 23:51:36,1021831
2025-09-02 23:51:36,1021776
2025-09-02 23:51:36,1021794
2025-09-02 23:51:36,1021845
2025-09-02 23:51:36,1021771
2025-09-02 23:51:36,1021643
2025-09-02 23:51:36,1021509
2025-09-02 23:51:36,1021645
2025-09-02 23:51:36,1021712
2025-09-02 23:51:36,1021696
2025-09-02 23:51:36,1021589
2025-09-02 23:51:36,1021521
2025-09-02 23:51:36,1021551
2025-09-02 23:51:36,1021615
2025-09-02 23:51:36,1021548
2025-09-02 23:51:36,1021322
2025-09-02 23:51:36,1021179
2025-09-02 23:51:36,1021254
2025-09-02 23:51:36,1021271
2025-09-02 23:51:36,1021352
2025-09-02 23:51:36,1021185
2025-09-02 23:51:36,1020950
2025-09-02 23:51:36,1020893
2025-09-02 23:51:36,1020811
2025-09-02 23:51:36,1020794
2025-09-02 23:51:36,1020816
2025-09-02 23:51:36,1020737
2025-09-02 23:51:36,1020644
2025-09-02 23:51:36,1020541
2025-09-02 23:51:36,1020488
2025-09-02 23:51:36,1020428
2025-09-02 23:51:36,1020366
2025-09-02 23:51:36,1020454
2025-09-02 23:51:36,1020523
2025-09-02 23:51:36,1020610
2025-09-02 23:51:36,1020506
2025-09-02 23:51:37,1020461
2025-09-02 23:51:37,1020116
2025-09-02 23:51:37,1019876
2025-09-02 23:51:37,1019695
2025-09-02 23:51:37,1019599
2025-09-02 23:51:37,1019615
2025-09-02 23:51:37,1019679
2025-09-02 23:51:37,1019844
2025-09-02 23:51:37,1019914
2025-09-02 23:51:37,1019891
2025-09-02 23:51:37,1019984
2025-09-02 23:51:37,1020134
2025-09-02 23:51:37,1020083
2025-09-02 23:51:37,1020089
2025-09-02 23:51:37,1020065
2025-09-02 23:51:37,1019980
2025-09-02 23:51:37,1019907
2025-09-02 23:51:37,1019803
2025-09-02 23:51:37,1019821
2025-09-02 23:51:37,1019744
2025-09-02 23:51:37,1019772
2025-09-02 23:51:37,1019722
2025-09-02 23:51:37,1019908
2025-09-02 23:51:37,1019901
2025-09-02 23:51:37,1019892
2025-09-02 23:51:37,1019844
2025-09-02 23:51:37,1019765
2025-09-02 23:51:37,1019661
2025-09-02 23:51:37,1019579
2025-09-02 23:51:37,1019489
2025-09-02 23:51:37,1019493
2025-09-02 23:51:37,1019518
2025-09-02 23:51:37,1019499
2025-09-02 23:51:37,1019473
2025-09-02 23:51:37,1019487
2025-09-02 23:51:37,1019489
2025-09-02 23:51:37,1019367
2025-09-02 23:51:37,1019329
2025-09-02 23:51:37,1019165
2025-09-02 23:51:37,1019160
2025-09-02 23:51:37,1019077
2025-09-02 23:51:37,1019025
2025-09-02 23:51:37,1018831
2025-09-02 23:51:37,1018816
2025-09-02 23:51:37,1018846
2025-09-02 23:51:37,1018840
2025-09-02 23:51:37,1018821
2025-09-02 23:51:37,1018881
2025-09-02 23:51:37,1018959
2025-09-02 23:51:37,1019058
2025-09-02 23:51:37,1019167
2025-09-02 23:51:37,1019223
2025-09-02 23:51:37,1019391
2025-09-02 23:51:37,1019440
2025-09-02 23:51:37,1019658
2025-09-02 23:51:37,1019734
2025-09-02 23:51:37,1019872
2025-09-02 23:51:37,1019960
2025-09-02 23:51:37,1019968
2025-09-02 23:51:37,1020086
2025-09-02 23:51:37,1020214
2025-09-02 23:51:37,1020283
2025-09-02 23:51:37,1020297
2025-09-02 23:51:37,1020225
2025-09-02 23:51:37,1019995
2025-09-02 23:51:37,1019668
2025-09-02 23:51:37,1019318
2025-09-02 23:51:37,1019063
2025-09-02 23:51:37,1018970
2025-09-02 23:51:37,1018843
2025-09-02 23:51:37,1018968
2025-09-02 23:51:37,1018869
2025-09-02 23:51:37,1018835
2025-09-02 23:51:37,1018786
2025-09-02 23:51:37,1018714
2025-09-02 23:51:37,1018712
2025-09-02 23:51:37,1018688
2025-09-02 23:51:37,1018543
2025-09-02 23:51:37,1018502
2025-09-02 23:51:37,1018503
2025-09-02 23:51:37,1018478
2025-09-02 23:51:37,1018401
2025-09-02 23:51:37,1018278
2025-09-02 23:51:37,1018273
2025-09-02 23:51:37,1018320
2025-09-02 23:51:37,1018438
2025-09-02 23:51:37,1018348
2025-09-02 23:51:37,1018462
2025-09-02 23:51:37,1018436
2025-09-02 23:51:37,1018540
2025-09-02 23:51:37,1018504
2025-09-02 23:51:37,1018501
2025-09-02 23:51:37,1018454
2025-09-02 23:51:37,1018523
2025-09-02 23:51:37,1018544
2025-09-02 23:51:37,1018583
2025-09-02 23:51:37,1018691
2025-09-02 23:51:37,1018856
2025-09-02 23:51:37,1018911
2025-09-02 23:51:37,1019098
2025-09-02 23:51:38,1019159
2025-09-02 23:51:38,1019184
2025-09-02 23:51:38,1019220
2025-09-02 23:51:38,1019285
2025-09-02 23:51:38,1019329
2025-09-02 23:51:38,1019436
2025-09-02 23:51:38,1019427
2025-09-02 23:51:38,1019528
2025-09-02 23:51:38,1019547
2025-09-02 23:51:38,1019573
2025-09-02 23:51:38,1019607
2025-09-02 23:51:38,1019702
2025-09-02 23:51:38,1019642
2025-09-02 23:51:38,1019641
2025-09-02 23:51:38,1019677
2025-09-02 23:51:38,1019578
2025-09-02 23:51:38,1019506
2025-09-02 23:51:38,1019507
2025-09-02 23:51:38,1019485
2025-09-02 23:51:38,1019494
2025-09-02 23:51:38,1019354
2025-09-02 23:51:38,1019361
2025-09-02 23:51:38,1019229
2025-09-02 23:51:38,1019257
2025-09-02 23:51:38,1019218
2025-09-02 23:51:38,1019352
2025-09-02 23:51:38,1019237
2025-09-02 23:51:38,1019015
2025-09-02 23:51:38,1018642
2025-09-02 23:51:38,1018298
2025-09-02 23:51:38,1017952
2025-09-02 23:51:38,1017563
2025-09-02 23:51:38,1017411
2025-09-02 23:51:38,1017293
2025-09-02 23:51:38,1017387
2025-09-02 23:51:38,1017455
2025-09-02 23:51:38,1017703
2025-09-02 23:51:38,1017879
2025-09-02 23:51:38,1017870
2025-09-02 23:51:38,1017849
2025-09-02 23:51:38,1017818
2025-09-02 23:51:38,1017563
2025-09-02 23:51:38,1017527
2025-09-02 23:51:38,1017258
2025-09-02 23:51:38,1017173
2025-09-02 23:51:38,1017014
2025-09-02 23:51:38,1016920
2025-09-02 23:51:38,1016852
2025-09-02 23:51:38,1016976
2025-09-02 23:51:38,1017026
2025-09-02 23:51:38,1017020
2025-09-02 23:51:38,1017071
2025-09-02 23:51:38,1016922
2025-09-02 23:51:38,1016832
2025-09-02 23:51:38,1016819
2025-09-02 23:51:38,1016786
2025-09-02 23:51:38,1016873
2025-09-02 23:51:38,1017068
2025-09-02 23:51:38,1017254
2025-09-02 23:51:38,1017362
2025-09-02 23:51:38,1017599
2025-09-02 23:51:38,1017844
2025-09-02 23:51:38,1017976
2025-09-02 23:51:38,1018056
2025-09-02 23:51:38,1018077
2025-09-02 23:51:38,1018054
2025-09-02 23:51:38,1018111
2025-09-02 23:51:38,1018112
2025-09-02 23:51:38,1018210
2025-09-02 23:51:38,1018174
2025-09-02 23:51:38,1018209
2025-09-02 23:51:38,1018252
2025-09-02 23:51:38,1018320
2025-09-02 23:51:38,1018400
2025-09-02 23:51:38,1018364
2025-09-02 23:51:38,1018390
2025-09-02 23:51:38,1018410
2025-09-02 23:51:38,1018537
2025-09-02 23:51:38,1018562
2025-09-02 23:51:38,1018687
2025-09-02 23:51:38,1018666
2025-09-02 23:51:38,1018605
2025-09-02 23:51:38,1018650
2025-09-02 23:51:38,1018578
2025-09-02 23:51:38,1018676
2025-09-02 23:51:38,1018768
2025-09-02 23:51:38,1018831
2025-09-02 23:51:38,1018804
2025-09-02 23:51:38,1018836
2025-09-02 23:51:38,1018814
2025-09-02 23:51:38,1018855
2025-09-02 23:51:38,1018717
2025-09-02 23:51:38,1018662
2025-09-02 23:51:38,1018466
2025-09-02 23:51:38,1018228
2025-09-02 23:51:38,1017792
2025-09-02 23:51:38,1017478
2025-09-02 23:51:38,1017024
2025-09-02 23:51:38,1016824
2025-09-02 23:51:39,1016650
2025-09-02 23:51:39,1016543
2025-09-02 23:51:39,1016513
2025-09-02 23:51:39,1016717
2025-09-02 23:51:39,1016793
2025-09-02 23:51:39,1016844
2025-09-02 23:51:39,1016877
2025-09-02 23:51:39,1016870
2025-09-02 23:51:39,1016842
2025-09-02 23:51:39,1016727
2025-09-02 23:51:39,1016619
2025-09-02 23:51:39,1016556
2025-09-02 23:51:39,1016485
2025-09-02 23:51:39,1016491
2025-09-02 23:51:39,1016608
2025-09-02 23:51:39,1016641
2025-09-02 23:51:39,1016839
2025-09-02 23:51:39,1016965
2025-09-02 23:51:39,1016994
2025-09-02 23:51:39,1016923
2025-09-02 23:51:39,1016936
2025-09-02 23:51:39,1016878
2025-09-02 23:51:39,1016807
2025-09-02 23:51:39,1016794
2025-09-02 23:51:39,1016829
2025-09-02 23:51:39,1016926
2025-09-02 23:51:39,1016984
2025-09-02 23:51:39,1017050
2025-09-02 23:51:39,1017189
2025-09-02 23:51:39,1017265
2025-09-02 23:51:39,1017339
2025-09-02 23:51:39,1017449
2025-09-02 23:51:39,1017486
2025-09-02 23:51:39,1017685
2025-09-02 23:51:39,1017770
2025-09-02 23:51:39,1017865
2025-09-02 23:51:39,1017824
2025-09-02 23:51:39,1018013
2025-09-02 23:51:39,1018046
2025-09-02 23:51:39,1018164
2025-09-02 23:51:39,1018349
2025-09-02 23:51:39,1018324
2025-09-02 23:51:39,1018423
2025-09-02 23:51:39,1018375
2025-09-02 23:51:39,1018448
2025-09-02 23:51:39,1018424
2025-09-02 23:51:39,1018267
2025-09-02 23:51:39,1018137
2025-09-02 23:51:39,1017678
2025-09-02 23:51:39,1017325
2025-09-02 23:51:39,1017142
2025-09-02 23:51:39,1016960
2025-09-02 23:51:39,1016872
2025-09-02 23:51:39,1016756
2025-09-02 23:51:39,1016459
2025-09-02 23:51:39,1016258
2025-09-02 23:51:39,1016112
2025-09-02 23:51:39,1015826
2025-09-02 23:51:39,1015846
2025-09-02 23:51:39,1015945
2025-09-02 23:51:39,1015873
2025-09-02 23:51:39,1015794
2025-09-02 23:51:39,1015832
2025-09-02 23:51:39,1015892
2025-09-02 23:51:39,1016126
2025-09-02 23:51:39,1016398
2025-09-02 23:51:39,1016610
2025-09-02 23:51:39,1016876
2025-09-02 23:51:39,1017265
2025-09-02 23:51:39,1017808
2025-09-02 23:51:39,1018080
2025-09-02 23:51:39,1018173
2025-09-02 23:51:39,1018224
2025-09-02 23:51:39,1018248
2025-09-02 23:51:39,1018314
2025-09-02 23:51:39,1018434
2025-09-02 23:51:39,1018354
2025-09-02 23:51:39,1018205
2025-09-02 23:51:39,1018118
2025-09-02 23:51:39,1018169
2025-09-02 23:51:39,1018198
2025-09-02 23:51:39,1018122
2025-09-02 23:51:39,1018036
2025-09-02 23:51:39,1018022
2025-09-02 23:51:39,1018039
2025-09-02 23:51:39,1018170
2025-09-02 23:51:39,1018180
2025-09-02 23:51:39,1018209
2025-09-02 23:51:39,1018211
2025-09-02 23:51:39,1018198
2025-09-02 23:51:39,1018254
2025-09-02 23:51:39,1018252
2025-09-02 23:51:39,1018277
2025-09-02 23:51:39,1018388
2025-09-02 23:51:39,1018420
2025-09-02 23:51:39,1018327
2025-09-02 23:51:39,1018121
2025-09-02 23:51:39,1017946
2025-09-02 23:51:39,1017738
2025-09-02 23:51:39,1017437
2025-09-02 23:51:40,1017288
2025-09-02 23:51:40,1016985
2025-09-02 23:51:40,1016828
2025-09-02 23:51:40,1016665
2025-09-02 23:51:40,1016465
2025-09-02 23:51:40,1016424
2025-09-02 23:51:40,1016471
2025-09-02 23:51:40,1016462
2025-09-02 23:51:40,1016424
2025-09-02 23:51:40,1016545
2025-09-02 23:51:40,1016561
2025-09-02 23:51:40,1016544
2025-09-02 23:51:40,1016723
2025-09-02 23:51:40,1016698
2025-09-02 23:51:40,1016744
2025-09-02 23:51:40,1016867
2025-09-02 23:51:40,1016933
2025-09-02 23:51:40,1016911
2025-09-02 23:51:40,1016864
2025-09-02 23:51:40,1016775
2025-09-02 23:51:40,1016762
2025-09-02 23:51:40,1016832
2025-09-02 23:51:40,1016977
2025-09-02 23:51:40,1017066
2025-09-02 23:51:40,1017062
2025-09-02 23:51:40,1017057
2025-09-02 23:51:40,1016870
2025-09-02 23:51:40,1016542
2025-09-02 23:51:40,1016339
2025-09-02 23:51:40,1016115
2025-09-02 23:51:40,1015983
2025-09-02 23:51:40,1016027
2025-09-02 23:51:40,1016228
2025-09-02 23:51:40,1016320
2025-09-02 23:51:40,1016367
2025-09-02 23:51:40,1016524
2025-09-02 23:51:40,1016646
2025-09-02 23:51:40,1016614
2025-09-02 23:51:40,1016714
2025-09-02 23:51:40,1016811
2025-09-02 23:51:40,1016782
2025-09-02 23:51:40,1016677
2025-09-02 23:51:40,1016702
2025-09-02 23:51:40,1016642
2025-09-02 23:51:40,1016586
2025-09-02 23:51:40,1016462
2025-09-02 23:51:40,1016458
2025-09-02 23:51:40,1016540
2025-09-02 23:51:40,1016378
2025-09-02 23:51:40,1016440
2025-09-02 23:51:40,1016328
2025-09-02 23:51:40,1016415
2025-09-02 23:51:40,1016436
2025-09-02 23:51:40,1016550
2025-09-02 23:51:40,1016663
2025-09-02 23:51:40,1016792
2025-09-02 23:51:40,1017063
2025-09-02 23:51:40,1017238
2025-09-02 23:51:40,1017414
2025-09-02 23:51:40,1017500
2025-09-02 23:51:40,1017634
2025-09-02 23:51:40,1017832
2025-09-02 23:51:40,1017856
2025-09-02 23:51:40,1017871
2025-09-02 23:51:40,1018019
2025-09-02 23:51:40,1018096
2025-09-02 23:51:40,1018092
2025-09-02 23:51:40,1018142
2025-09-02 23:51:40,1018291
2025-09-02 23:51:40,1018284
2025-09-02 23:51:40,1018153
2025-09-02 23:51:40,1018165
2025-09-02 23:51:40,1018100
2025-09-02 23:51:40,1018015
2025-09-02 23:51:40,1017947
2025-09-02 23:51:40,1017758
2025-09-02 23:51:40,1017578
2025-09-02 23:51:40,1017426
2025-09-02 23:51:40,1017271
2025-09-02 23:51:40,1017134
2025-09-02 23:51:40,1017029
2025-09-02 23:51:40,1016961
2025-09-02 23:51:40,1016844
2025-09-02 23:51:40,1016752
2025-09-02 23:51:40,1016681
2025-09-02 23:51:40,1016591
2025-09-02 23:51:40,1016623
2025-09-02 23:51:40,1016807
2025-09-02 23:51:40,1016658
2025-09-02 23:51:40,1016671
2025-09-02 23:51:40,1016479
2025-09-02 23:51:40,1016362
2025-09-02 23:51:40,1016158
2025-09-02 23:51:40,1016196
2025-09-02 23:51:40,1016311
2025-09-02 23:51:40,1016402
2025-09-02 23:51:40,1016594
2025-09-02 23:51:40,1016722
2025-09-02 23:51:40,1016831
2025-09-02 23:51:40,1016932
2025-09-02 23:51:40,1016953
2025-09-02 23:51:41,1016979
2025-09-02 23:51:41,1017036
2025-09-02 23:51:41,1017043
2025-09-02 23:51:41,1017016
2025-09-02 23:51:41,1016943
2025-09-02 23:51:41,1016905
2025-09-02 23:51:41,1016961
2025-09-02 23:51:41,1016853
2025-09-02 23:51:41,1016998
2025-09-02 23:51:41,1016996
2025-09-02 23:51:41,1017076
2025-09-02 23:51:41,1017114
2025-09-02 23:51:41,1017107
2025-09-02 23:51:41,1017115
2025-09-02 23:51:41,1017062
2025-09-02 23:51:41,1017152
2025-09-02 23:51:41,1017082
2025-09-02 23:51:41,1017145
2025-09-02 23:51:41,1017311
2025-09-02 23:51:41,1017456
2025-09-02 23:51:41,1017587
2025-09-02 23:51:41,1017741
2025-09-02 23:51:41,1017904
2025-09-02 23:51:41,1018038
2025-09-02 23:51:41,1018167
2025-09-02 23:51:41,1018306
2025-09-02 23:51:41,1018305
2025-09-02 23:51:41,1018306
2025-09-02 23:51:41,1018286
2025-09-02 23:51:41,1018288
2025-09-02 23:51:41,1018155
2025-09-02 23:51:41,1017959
2025-09-02 23:51:41,1017808
2025-09-02 23:51:41,1017811
2025-09-02 23:51:41,1017620
2025-09-02 23:51:41,1017492
2025-09-02 23:51:41,1017609
2025-09-02 23:51:41,1017593
2025-09-02 23:51:41,1017568
2025-09-02 23:51:41,1017562
2025-09-02 23:51:41,1017477
2025-09-02 23:51:41,1017390
2025-09-02 23:51:41,1017446
2025-09-02 23:51:41,1017557
2025-09-02 23:51:41,1017703
2025-09-02 23:51:41,1017707
2025-09-02 23:51:41,1017664
2025-09-02 23:51:41,1017812
2025-09-02 23:51:41,1017898
2025-09-02 23:51:41,1018058
2025-09-02 23:51:41,1018161
2025-09-02 23:51:41,1018347
2025-09-02 23:51:41,1018297
2025-09-02 23:51:41,1017991
2025-09-02 23:51:41,1017960
2025-09-02 23:51:41,1017744
2025-09-02 23:51:41,1017731
2025-09-02 23:51:41,1017745
2025-09-02 23:51:41,1017831
2025-09-02 23:51:41,1018129
2025-09-02 23:51:41,1018203
2025-09-02 23:51:41,1018280
2025-09-02 23:51:41,1018292
2025-09-02 23:51:41,1018233
2025-09-02 23:51:41,1018167
2025-09-02 23:51:41,1017998
2025-09-02 23:51:41,1017751
2025-09-02 23:51:41,1017678
2025-09-02 23:51:41,1017557
2025-09-02 23:51:41,1017515
2025-09-02 23:51:41,1017558
2025-09-02 23:51:41,1017598
2025-09-02 23:51:41,1017777
2025-09-02 23:51:41,1017768
2025-09-02 23:51:41,1017748
2025-09-02 23:51:41,1017742
2025-09-02 23:51:41,1017718
2025-09-02 23:51:41,1017681
2025-09-02 23:51:41,1017639
2025-09-02 23:51:41,1017618
2025-09-02 23:51:41,1017594
2025-09-02 23:51:41,1017524
2025-09-02 23:51:41,1017579
2025-09-02 23:51:41,1017552
2025-09-02 23:51:41,1017433
2025-09-02 23:51:41,1017473
2025-09-02 23:51:41,1017547
2025-09-02 23:51:41,1017741
2025-09-02 23:51:41,1017734
2025-09-02 23:51:41,1017797
2025-09-02 23:51:41,1017941
2025-09-02 23:51:41,1018014
2025-09-02 23:51:41,1018104
2025-09-02 23:51:41,1018244
2025-09-02 23:51:41,1018390
2025-09-02 23:51:41,1018474
2025-09-02 23:51:41,1018534
2025-09-02 23:51:41,1018630
2025-09-02 23:51:41,1018595
2025-09-02 23:51:41,1018629
2025-09-02 23:51:42,1018719
2025-09-02 23:51:42,1018658
2025-09-02 23:51:42,1018685
2025-09-02 23:51:42,1018581
2025-09-02 23:51:42,1018491
2025-09-02 23:51:42,1018458
2025-09-02 23:51:42,1018525
2025-09-02 23:51:42,1018578
2025-09-02 23:51:42,1018641
2025-09-02 23:51:42,1018645
2025-09-02 23:51:42,1018619
2025-09-02 23:51:42,1018574
2025-09-02 23:51:42,1018641
2025-09-02 23:51:42,1018684
2025-09-02 23:51:42,1018769
2025-09-02 23:51:42,1018796
2025-09-02 23:51:42,1018717
2025-09-02 23:51:42,1018597
2025-09-02 23:51:42,1018420
2025-09-02 23:51:42,1018225
2025-09-02 23:51:42,1018041
2025-09-02 23:51:42,1017966
2025-09-02 23:51:42,1017937
2025-09-02 23:51:42,1018083
2025-09-02 23:51:42,1018093
2025-09-02 23:51:42,1018156
2025-09-02 23:51:42,1018217
2025-09-02 23:51:42,1018208
2025-09-02 23:51:42,1018234
2025-09-02 23:51:42,1018241
2025-09-02 23:51:42,1018164
2025-09-02 23:51:42,1018195
2025-09-02 23:51:42,1018194
2025-09-02 23:51:42,1018247
2025-09-02 23:51:42,1018250
2025-09-02 23:51:42,1018371
2025-09-02 23:51:42,1018503
2025-09-02 23:51:42,1018465
2025-09-02 23:51:42,1018417
2025-09-02 23:51:42,1018346
2025-09-02 23:51:42,1018386
2025-09-02 23:51:42,1018258
2025-09-02 23:51:42,1018255
2025-09-02 23:51:42,1018194
2025-09-02 23:51:42,1018198
2025-09-02 23:51:42,1018103
2025-09-02 23:51:42,1018138
2025-09-02 23:51:42,1018165
2025-09-02 23:51:42,1018232
2025-09-02 23:51:42,1018322
2025-09-02 23:51:42,1018266
2025-09-02 23:51:42,1018329
2025-09-02 23:51:42,1018354
2025-09-02 23:51:42,1018430
2025-09-02 23:51:42,1018406
2025-09-02 23:51:42,1018430
2025-09-02 23:51:42,1018467
2025-09-02 23:51:42,1018416
2025-09-02 23:51:42,1018424
2025-09-02 23:51:42,1018467
2025-09-02 23:51:42,1018333
2025-09-02 23:51:42,1018280
2025-09-02 23:51:42,1018361
2025-09-02 23:51:42,1018317
2025-09-02 23:51:42,1018360
2025-09-02 23:51:42,1018359
2025-09-02 23:51:42,1018244
2025-09-02 23:51:42,1018206
2025-09-02 23:51:42,1018004
2025-09-02 23:51:42,1017881
2025-09-02 23:51:42,1017859
2025-09-02 23:51:42,1017858
2025-09-02 23:51:42,1017851
2025-09-02 23:51:42,1017679
2025-09-02 23:51:42,1017682
2025-09-02 23:51:42,1017646
2025-09-02 23:51:42,1017542
2025-09-02 23:51:42,1017680
2025-09-02 23:51:42,1017787
2025-09-02 23:51:42,1017858
2025-09-02 23:51:42,1017848
2025-09-02 23:51:42,1017798
2025-09-02 23:51:42,1017777
2025-09-02 23:51:42,1017708
2025-09-02 23:51:42,1017612
2025-09-02 23:51:42,1017654
2025-09-02 23:51:42,1017802
2025-09-02 23:51:42,1017951
2025-09-02 23:51:42,1018131
2025-09-02 23:51:42,1018323
2025-09-02 23:51:42,1018441
2025-09-02 23:51:42,1018558
2025-09-02 23:51:42,1018556
2025-09-02 23:51:42,1018568
2025-09-02 23:51:42,1018541
2025-09-02 23:51:42,1018447
2025-09-02 23:51:42,1018462
2025-09-02 23:51:42,1018446
2025-09-02 23:51:42,1018355
2025-09-02 23:51:42,1018425
2025-09-02 23:51:43,1018573
2025-09-02 23:51:43,1018596
2025-09-02 23:51:43,1018644
2025-09-02 23:51:43,1018538
2025-09-02 23:51:43,1018509
2025-09-02 23:51:43,1018521
2025-09-02 23:51:43,1018435
2025-09-02 23:51:43,1018497
2025-09-02 23:51:43,1018345
2025-09-02 23:51:43,1018311
2025-09-02 23:51:43,1018245
2025-09-02 23:51:43,1018202
2025-09-02 23:51:43,1018201
2025-09-02 23:51:43,1018085
2025-09-02 23:51:43,1018076
2025-09-02 23:51:43,1018029
2025-09-02 23:51:43,1018026
2025-09-02 23:51:43,1017999
2025-09-02 23:51:43,1017869
2025-09-02 23:51:43,1017935
2025-09-02 23:51:43,1017900
2025-09-02 23:51:43,1017926
2025-09-02 23:51:43,1017922
2025-09-02 23:51:43,1017958
2025-09-02 23:51:43,1017935
2025-09-02 23:51:43,1017929
2025-09-02 23:51:43,1017867
2025-09-02 23:51:43,1017822
2025-09-02 23:51:43,1017848
2025-09-02 23:51:43,1017830
2025-09-02 23:51:43,1017872
2025-09-02 23:51:43,1017891
2025-09-02 23:51:43,1017858
2025-09-02 23:51:43,1017790
2025-09-02 23:51:43,1017740
2025-09-02 23:51:43,1017831
2025-09-02 23:51:43,1017864
2025-09-02 23:51:43,1017842
2025-09-02 23:51:43,1017838
2025-09-02 23:51:43,1017825
2025-09-02 23:51:43,1017764
2025-09-02 23:51:43,1017837
2025-09-02 23:51:43,1017930
2025-09-02 23:51:43,1017990
2025-09-02 23:51:43,1018114
2025-09-02 23:51:43,1018074
2025-09-02 23:51:43,1017938
2025-09-02 23:51:43,1017790
2025-09-02 23:51:43,1017566
2025-09-02 23:51:43,1017410
2025-09-02 23:51:43,1017333
2025-09-02 23:51:43,1017294
2025-09-02 23:51:43,1017447
2025-09-02 23:51:43,1017547
2025-09-02 23:51:43,1017694
2025-09-02 23:51:43,1017773
2025-09-02 23:51:43,1017779
2025-09-02 23:51:43,1017812
2025-09-02 23:51:43,1017753
2025-09-02 23:51:43,1017765
2025-09-02 23:51:43,1017726
2025-09-02 23:51:43,1017782
2025-09-02 23:51:43,1017744
2025-09-02 23:51:43,1017807
2025-09-02 23:51:43,1017762
2025-09-02 23:51:43,1017760
2025-09-02 23:51:43,1017913
2025-09-02 23:51:43,1017915
2025-09-02 23:51:43,1017900
2025-09-02 23:51:43,1017844
2025-09-02 23:51:43,1017833
2025-09-02 23:51:43,1017796
2025-09-02 23:51:43,1017705
2025-09-02 23:51:43,1017760
2025-09-02 23:51:43,1017775
2025-09-02 23:51:43,1017798
2025-09-02 23:51:43,1017777
2025-09-02 23:51:43,1017816
2025-09-02 23:51:43,1017922
2025-09-02 23:51:43,1018057
2025-09-02 23:51:43,1018251
2025-09-02 23:51:43,1018380
2025-09-02 23:51:43,1018463
2025-09-02 23:51:43,1018508
2025-09-02 23:51:43,1018613
2025-09-02 23:51:43,1018650
2025-09-02 23:51:43,1018631
2025-09-02 23:51:43,1018626
2025-09-02 23:51:43,1018667
2025-09-02 23:51:43,1018715
2025-09-02 23:51:43,1018695
2025-09-02 23:51:43,1018632
2025-09-02 23:51:43,1018737
2025-09-02 23:51:43,1018839
2025-09-02 23:51:43,1018788
2025-09-02 23:51:43,1019026
2025-09-02 23:51:43,1019061
2025-09-02 23:51:43,1019138
2025-09-02 23:51:43,1019237
2025-09-02 23:51:43,1019262
2025-09-02 23:51:44,1019282
2025-09-02 23:51:44,1019251
2025-09-02 23:51:44,1019290
2025-09-02 23:51:44,1019397
2025-09-02 23:51:44,1019373
2025-09-02 23:51:44,1019428
2025-09-02 23:51:44,1019424
2025-09-02 23:51:44,1019438
2025-09-02 23:51:44,1019483
2025-09-02 23:51:44,1019604
2025-09-02 23:51:44,1019809
2025-09-02 23:51:44,1019896
2025-09-02 23:51:44,1019971
2025-09-02 23:51:44,1019876
2025-09-02 23:51:44,1019755
2025-09-02 23:51:44,1019702
2025-09-02 23:51:44,1019518
2025-09-02 23:51:44,1019428
2025-09-02 23:51:44,1019362
2025-09-02 23:51:44,1019413
2025-09-02 23:51:44,1019419
2025-09-02 23:51:44,1019486
2025-09-02 23:51:44,1019500
2025-09-02 23:51:44,1019514
2025-09-02 23:51:44,1019402
2025-09-02 23:51:44,1019271
2025-09-02 23:51:44,1019063
2025-09-02 23:51:44,1018971
2025-09-02 23:51:44,1018807
2025-09-02 23:51:44,1018696
2025-09-02 23:51:44,1018606
2025-09-02 23:51:44,1018540
2025-09-02 23:51:44,1018545
2025-09-02 23:51:44,1018555
2025-09-02 23:51:44,1018591
2025-09-02 23:51:44,1018605
2025-09-02 23:51:44,1018488
2025-09-02 23:51:44,1018445
2025-09-02 23:51:44,1018453
2025-09-02 23:51:44,1018372
2025-09-02 23:51:44,1018348
2025-09-02 23:51:44,1018257
2025-09-02 23:51:44,1018104
2025-09-02 23:51:44,1017996
2025-09-02 23:51:44,1018014
2025-09-02 23:51:44,1017987
2025-09-02 23:51:44,1017923
2025-09-02 23:51:44,1018058
2025-09-02 23:51:44,1018122
2025-09-02 23:51:44,1018213
2025-09-02 23:51:44,1018205
2025-09-02 23:51:44,1018366
2025-09-02 23:51:44,1018261
2025-09-02 23:51:44,1018281
2025-09-02 23:51:44,1018376
2025-09-02 23:51:44,1018440
2025-09-02 23:51:44,1018481
2025-09-02 23:51:44,1018576
2025-09-02 23:51:44,1018728
2025-09-02 23:51:44,1018792
2025-09-02 23:51:44,1018847
2025-09-02 23:51:44,1018893
2025-09-02 23:51:44,1018876
2025-09-02 23:51:44,1018929
2025-09-02 23:51:44,1018894
2025-09-02 23:51:44,1018901
2025-09-02 23:51:44,1019025
2025-09-02 23:51:44,1019079
2025-09-02 23:51:44,1019052
2025-09-02 23:51:44,1019077
2025-09-02 23:51:44,1019104
2025-09-02 23:51:44,1019086
2025-09-02 23:51:44,1019029
2025-09-02 23:51:44,1019030
2025-09-02 23:51:44,1019061
2025-09-02 23:51:44,1019036
2025-09-02 23:51:44,1018930
2025-09-02 23:51:44,1018842
2025-09-02 23:51:44,1018858
2025-09-02 23:51:44,1019022
2025-09-02 23:51:44,1019010
2025-09-02 23:51:44,1019080
2025-09-02 23:51:44,1018987
2025-09-02 23:51:44,1018943
2025-09-02 23:51:44,1018859
2025-09-02 23:51:44,1018777
2025-09-02 23:51:44,1018732
2025-09-02 23:51:44,1018693
2025-09-02 23:51:44,1018897
2025-09-02 23:51:44,1018973
2025-09-02 23:51:44,1019129
2025-09-02 23:51:44,1019375
2025-09-02 23:51:44,1019489
2025-09-02 23:51:44,1019511
2025-09-02 23:51:44,1019474
2025-09-02 23:51:44,1019372
2025-09-02 23:51:44,1019312
2025-09-02 23:51:44,1019143
2025-09-02 23:51:44,1019122
2025-09-02 23:51:45,1018924
2025-09-02 23:51:45,1018949
2025-09-02 23:51:45,1018840
2025-09-02 23:51:45,1018850
2025-09-02 23:51:45,1018968
2025-09-02 23:51:45,1018990
2025-09-02 23:51:45,1018965
2025-09-02 23:51:45,1018937
2025-09-02 23:51:45,1018871
2025-09-02 23:51:45,1018772
2025-09-02 23:51:45,1018736
2025-09-02 23:51:45,1018702
2025-09-02 23:51:45,1018696
2025-09-02 23:51:45,1018629
2025-09-02 23:51:45,1018682
2025-09-02 23:51:45,1018692
2025-09-02 23:51:45,1018819
2025-09-02 23:51:45,1018832
2025-09-02 23:51:45,1019002
2025-09-02 23:51:45,1018948
2025-09-02 23:51:45,1018989
2025-09-02 23:51:45,1019027
2025-09-02 23:51:45,1018960
2025-09-02 23:51:45,1018885
2025-09-02 23:51:45,1018950
2025-09-02 23:51:45,1018954
2025-09-02 23:51:45,1018915
2025-09-02 23:51:45,1019018
2025-09-02 23:51:45,1019036
2025-09-02 23:51:45,1018996
2025-09-02 23:51:45,1018933
2025-09-02 23:51:45,1018839
2025-09-02 23:51:45,1018900
2025-09-02 23:51:45,1018930
2025-09-02 23:51:45,1019013
2025-09-02 23:51:45,1018963
2025-09-02 23:51:45,1018944
2025-09-02 23:51:45,1018882
2025-09-02 23:51:45,1018876
2025-09-02 23:51:45,1018819
2025-09-02 23:51:45,1018687
2025-09-02 23:51:45,1018630
2025-09-02 23:51:45,1018628
2025-09-02 23:51:45,1018539
2025-09-02 23:51:45,1018589
2025-09-02 23:51:45,1018544
2025-09-02 23:51:45,1018548
2025-09-02 23:51:45,1018492
2025-09-02 23:51:45,1018379
2025-09-02 23:51:45,1018529
2025-09-02 23:51:45,1018662
2025-09-02 23:51:45,1018805
2025-09-02 23:51:45,1018912
2025-09-02 23:51:45,1018917
2025-09-02 23:51:45,1018821
2025-09-02 23:51:45,1018606
2025-09-02 23:51:45,1018467
2025-09-02 23:51:45,1018452
2025-09-02 23:51:45,1018360
2025-09-02 23:51:45,1018472
2025-09-02 23:51:45,1018616
2025-09-02 23:51:45,1018823
2025-09-02 23:51:45,1018969
2025-09-02 23:51:45,1019048
2025-09-02 23:51:45,1019096
2025-09-02 23:51:45,1019033
2025-09-02 23:51:45,1019036
2025-09-02 23:51:45,1018957
2025-09-02 23:51:45,1018882
2025-09-02 23:51:45,1018888
2025-09-02 23:51:45,1018904
2025-09-02 23:51:45,1018903
2025-09-02 23:51:45,1018988
2025-09-02 23:51:45,1018956
2025-09-02 23:51:45,1018944
2025-09-02 23:51:45,1019073
2025-09-02 23:51:45,1019044
2025-09-02 23:51:45,1019149
2025-09-02 23:51:45,1019132
2025-09-02 23:51:45,1018902
2025-09-02 23:51:45,1019024
2025-09-02 23:51:45,1019027
2025-09-02 23:51:45,1019087
2025-09-02 23:51:45,1019105
2025-09-02 23:51:45,1019080
2025-09-02 23:51:45,1019064
2025-09-02 23:51:45,1019248
2025-09-02 23:51:45,1019365
2025-09-02 23:51:45,1019395
2025-09-02 23:51:45,1019522
2025-09-02 23:51:45,1019408
2025-09-02 23:51:45,1019513
2025-09-02 23:51:45,1019446
2025-09-02 23:51:45,1019457
2025-09-02 23:51:45,1019392
2025-09-02 23:51:45,1019418
2025-09-02 23:51:45,1019424
2025-09-02 23:51:45,1019413
2025-09-02 23:51:45,1019405
2025-09-02 23:51:45,1019369
2025-09-02 23:51:46,1019333
2025-09-02 23:51:46,1019149
2025-09-02 23:51:46,1019169
2025-09-02 23:51:46,1019086
2025-09-02 23:51:46,1018966
2025-09-02 23:51:46,1018960
2025-09-02 23:51:46,1018906
2025-09-02 23:51:46,1018894
2025-09-02 23:51:46,1018741
2025-09-02 23:51:46,1018939
2025-09-02 23:51:46,1018875
2025-09-02 23:51:46,1018903
2025-09-02 23:51:46,1018884
2025-09-02 23:51:46,1018826
2025-09-02 23:51:46,1018693
2025-09-02 23:51:46,1018687
2025-09-02 23:51:46,1018622
2025-09-02 23:51:46,1018616
2025-09-02 23:51:46,1018692
2025-09-02 23:51:46,1018676
2025-09-02 23:51:46,1018481
2025-09-02 23:51:46,1018270
2025-09-02 23:51:46,1018115
2025-09-02 23:51:46,1017894
2025-09-02 23:51:46,1017705
2025-09-02 23:51:46,1017790
2025-09-02 23:51:46,1017843
2025-09-02 23:51:46,1018003
2025-09-02 23:51:46,1018103
2025-09-02 23:51:46,1018406
2025-09-02 23:51:46,1018472
2025-09-02 23:51:46,1018548
2025-09-02 23:51:46,1018601
2025-09-02 23:51:46,1018545
2025-09-02 23:51:46,1018567
2025-09-02 23:51:46,1018517
2025-09-02 23:51:46,1018478
2025-09-02 23:51:46,1018353
2025-09-02 23:51:46,1018380
2025-09-02 23:51:46,1018441
2025-09-02 23:51:46,1018486
2025-09-02 23:51:46,1018511
2025-09-02 23:51:46,1018641
2025-09-02 23:51:46,1018618
2025-09-02 23:51:46,1018625
2025-09-02 23:51:46,1018531
2025-09-02 23:51:46,1018427
2025-09-02 23:51:46,1018522
2025-09-02 23:51:46,1018579
2025-09-02 23:51:46,1018549
2025-09-02 23:51:46,1018611
2025-09-02 23:51:46,1018568
2025-09-02 23:51:46,1018593
2025-09-02 23:51:46,1018755
2025-09-02 23:51:46,1018715
2025-09-02 23:51:46,1018762
2025-09-02 23:51:46,1018837
2025-09-02 23:51:46,1018856
2025-09-02 23:51:46,1018904
2025-09-02 23:51:46,1018992
2025-09-02 23:51:46,1018997
2025-09-02 23:51:46,1019044
2025-09-02 23:51:46,1019075
2025-09-02 23:51:46,1019068
2025-09-02 23:51:46,1019009
2025-09-02 23:51:46,1019002
2025-09-02 23:51:46,1018988
2025-09-02 23:51:46,1018865
2025-09-02 23:51:46,1018881
2025-09-02 23:51:46,1018839
2025-09-02 23:51:46,1018802
2025-09-02 23:51:46,1018778
2025-09-02 23:51:46,1018771
2025-09-02 23:51:46,1018614
2025-09-02 23:51:46,1018562
2025-09-02 23:51:46,1018572
2025-09-02 23:51:46,1018561
2025-09-02 23:51:46,1018581
2025-09-02 23:51:46,1018790
2025-09-02 23:51:46,1018722
2025-09-02 23:51:46,1018701
2025-09-02 23:51:46,1018698
2025-09-02 23:51:46,1018710
2025-09-02 23:51:46,1018740
2025-09-02 23:51:46,1018969
2025-09-02 23:51:46,1018914
2025-09-02 23:51:46,1018911
2025-09-02 23:51:46,1018723
2025-09-02 23:51:46,1018667
2025-09-02 23:51:46,1018498
2025-09-02 23:51:46,1018341
2025-09-02 23:51:46,1018328
2025-09-02 23:51:46,1018359
2025-09-02 23:51:46,1018419
2025-09-02 23:51:46,1018638
2025-09-02 23:51:46,1018736
2025-09-02 23:51:46,1018934
2025-09-02 23:51:46,1018992
2025-09-02 23:51:46,1019033
2025-09-02 23:51:46,1019024
2025-09-02 23:51:47,1019101
2025-09-02 23:51:47,1019125
2025-09-02 23:51:47,1019065
2025-09-02 23:51:47,1019121
2025-09-02 23:51:47,1019121
2025-09-02 23:51:47,1019056
2025-09-02 23:51:47,1019036
2025-09-02 23:51:47,1019030
2025-09-02 23:51:47,1019021
2025-09-02 23:51:47,1019002
2025-09-02 23:51:47,1019090
2025-09-02 23:51:47,1019033
2025-09-02 23:51:47,1019130
2025-09-02 23:51:47,1019138
2025-09-02 23:51:47,1019091
2025-09-02 23:51:47,1019216
2025-09-02 23:51:47,1019222
2025-09-02 23:51:47,1019188
2025-09-02 23:51:47,1019309
2025-09-02 23:51:47,1019337
2025-09-02 23:51:47,1019339
2025-09-02 23:51:47,1019382
2025-09-02 23:51:47,1019430
2025-09-02 23:51:47,1019493
2025-09-02 23:51:47,1019512
2025-09-02 23:51:47,1019496
2025-09-02 23:51:47,1019407
2025-09-02 23:51:47,1019559
2025-09-02 23:51:47,1019400
2025-09-02 23:51:47,1019443
2025-09-02 23:51:47,1019462
2025-09-02 23:51:47,1019448
2025-09-02 23:51:47,1019449
2025-09-02 23:51:47,1019434
2025-09-02 23:51:47,1019541
2025-09-02 23:51:47,1019590
2025-09-02 23:51:47,1019426
2025-09-02 23:51:47,1019583
2025-09-02 23:51:47,1019482
2025-09-02 23:51:47,1019514
2025-09-02 23:51:47,1019482
2025-09-02 23:51:47,1019550
2025-09-02 23:51:47,1019518
2025-09-02 23:51:47,1019482
2025-09-02 23:51:47,1019461
2025-09-02 23:51:47,1019500
2025-09-02 23:51:47,1019619
2025-09-02 23:51:47,1019629
2025-09-02 23:51:47,1019723
2025-09-02 23:51:47,1019823
2025-09-02 23:51:47,1019772
2025-09-02 23:51:47,1019824
2025-09-02 23:51:47,1019826
2025-09-02 23:51:47,1019897
2025-09-02 23:51:47,1020044
2025-09-02 23:51:47,1020086
2025-09-02 23:51:47,1020158
2025-09-02 23:51:47,1020108
2025-09-02 23:51:47,1019883
2025-09-02 23:51:47,1019640
2025-09-02 23:51:47,1019557
2025-09-02 23:51:47,1019500
2025-09-02 23:51:47,1019594
2025-09-02 23:51:47,1019711
2025-09-02 23:51:47,1019847
2025-09-02 23:51:47,1019979
2025-09-02 23:51:47,1020041
2025-09-02 23:51:47,1020136
2025-09-02 23:51:47,1020171
2025-09-02 23:51:47,1020100
2025-09-02 23:51:47,1020028
2025-09-02 23:51:47,1019876
2025-09-02 23:51:47,1019768
2025-09-02 23:51:47,1019611
2025-09-02 23:51:47,1019635
2025-09-02 23:51:47,1019520
2025-09-02 23:51:47,1019456
2025-09-02 23:51:47,1019577
2025-09-02 23:51:47,1019681
2025-09-02 23:51:47,1019608
2025-09-02 23:51:47,1019658
2025-09-02 23:51:47,1019686
2025-09-02 23:51:47,1019565
2025-09-02 23:51:47,1019508
2025-09-02 23:51:47,1019420
2025-09-02 23:51:47,1019404
2025-09-02 23:51:47,1019392
2025-09-02 23:51:47,1019286
2025-09-02 23:51:47,1019334
2025-09-02 23:51:47,1019156
2025-09-02 23:51:47,1019216
2025-09-02 23:51:47,1019174
2025-09-02 23:51:47,1019202
2025-09-02 23:51:47,1019322
2025-09-02 23:51:47,1019416
2025-09-02 23:51:47,1019386
2025-09-02 23:51:47,1019478
2025-09-02 23:51:47,1019550
2025-09-02 23:51:47,1019576
2025-09-02 23:51:47,1019679
2025-09-02 23:51:48,1019695
2025-09-02 23:51:48,1019748
2025-09-02 23:51:48,1019815
2025-09-02 23:51:48,1019938
2025-09-02 23:51:48,1020021
2025-09-02 23:51:48,1019902
2025-09-02 23:51:48,1019990
2025-09-02 23:51:48,1019918
2025-09-02 23:51:48,1019976
2025-09-02 23:51:48,1019945
2025-09-02 23:51:48,1020037
2025-09-02 23:51:48,1019976
2025-09-02 23:51:48,1020065
2025-09-02 23:51:48,1020071
2025-09-02 23:51:48,1020077
2025-09-02 23:51:48,1020162
2025-09-02 23:51:48,1020243
2025-09-02 23:51:48,1020346
2025-09-02 23:51:48,1020357
2025-09-02 23:51:48,1020475
2025-09-02 23:51:48,1020583
2025-09-02 23:51:48,1020643
2025-09-02 23:51:48,1020635
2025-09-02 23:51:48,1020628
2025-09-02 23:51:48,1020633
2025-09-02 23:51:48,1020611
2025-09-02 23:51:48,1020714
2025-09-02 23:51:48,1020756
2025-09-02 23:51:48,1020731
2025-09-02 23:51:48,1020629
2025-09-02 23:51:48,1020381
2025-09-02 23:51:48,1020152
2025-09-02 23:51:48,1019915
2025-09-02 23:51:48,1019779
2025-09-02 23:51:48,1019783
2025-09-02 23:51:48,1019900
2025-09-02 23:51:48,1020041
2025-09-02 23:51:48,1020210
2025-09-02 23:51:48,1020213
2025-09-02 23:51:48,1020310
2025-09-02 23:51:48,1020359
2025-09-02 23:51:48,1020304
2025-09-02 23:51:48,1020325
2025-09-02 23:51:48,1020232
2025-09-02 23:51:48,1020081
2025-09-02 23:51:48,1020130
2025-09-02 23:51:48,1020045
2025-09-02 23:51:48,1019935
2025-09-02 23:51:48,1019957
2025-09-02 23:51:48,1019922
2025-09-02 23:51:48,1019975
2025-09-02 23:51:48,1020041
2025-09-02 23:51:48,1019862
2025-09-02 23:51:48,1019883
2025-09-02 23:51:48,1019761
2025-09-02 23:51:48,1019732
2025-09-02 23:51:48,1019722
2025-09-02 23:51:48,1019556
2025-09-02 23:51:48,1019520
2025-09-02 23:51:48,1019332
2025-09-02 23:51:48,1019345
2025-09-02 23:51:48,1019450
2025-09-02 23:51:48,1019508
2025-09-02 23:51:48,1019606
2025-09-02 23:51:48,1019604
2025-09-02 23:51:48,1019653
2025-09-02 23:51:48,1019685
2025-09-02 23:51:48,1019572
2025-09-02 23:51:48,1019511
2025-09-02 23:51:48,1019427
2025-09-02 23:51:48,1019429
2025-09-02 23:51:48,1019376
2025-09-02 23:51:48,1019384
2025-09-02 23:51:48,1019374
2025-09-02 23:51:48,1019482
2025-09-02 23:51:48,1019652
2025-09-02 23:51:48,1020145
2025-09-02 23:51:48,1020344
2025-09-02 23:51:48,1020656
2025-09-02 23:51:48,1020761
2025-09-02 23:51:48,1020863
2025-09-02 23:51:48,1021047
2025-09-02 23:51:48,1021206
2025-09-02 23:51:48,1021443
2025-09-02 23:51:48,1021446
2025-09-02 23:51:48,1021489
2025-09-02 23:51:48,1021548
2025-09-02 23:51:48,1021631
2025-09-02 23:51:48,1021596
2025-09-02 23:51:48,1021732
2025-09-02 23:51:48,1021727
2025-09-02 23:51:48,1021630
2025-09-02 23:51:48,1021516
2025-09-02 23:51:48,1021454
2025-09-02 23:51:48,1021464
2025-09-02 23:51:48,1021523
2025-09-02 23:51:48,1021613
2025-09-02 23:51:48,1021682
2025-09-02 23:51:48,1021669
2025-09-02 23:51:48,1021608
2025-09-02 23:51:49,1021473
2025-09-02 23:51:49,1021197
2025-09-02 23:51:49,1020962
2025-09-02 23:51:49,1020835
2025-09-02 23:51:49,1020752
2025-09-02 23:51:49,1020659
2025-09-02 23:51:49,1020781
2025-09-02 23:51:49,1020945
2025-09-02 23:51:49,1020880
2025-09-02 23:51:49,1021004
2025-09-02 23:51:49,1021047
2025-09-02 23:51:49,1021079
2025-09-02 23:51:49,1021000
2025-09-02 23:51:49,1020780
2025-09-02 23:51:49,1020602
2025-09-02 23:51:49,1020430
2025-09-02 23:51:49,1020307
2025-09-02 23:51:49,1020169
2025-09-02 23:51:49,1020168
2025-09-02 23:51:49,1020147
2025-09-02 23:51:49,1020145
2025-09-02 23:51:49,1020134
2025-09-02 23:51:49,1020147
2025-09-02 23:51:49,1020187
2025-09-02 23:51:49,1020256
2025-09-02 23:51:49,1020129
2025-09-02 23:51:49,1020232
2025-09-02 23:51:49,1020069
2025-09-02 23:51:49,1019967
2025-09-02 23:51:49,1020019
2025-09-02 23:51:49,1020000
2025-09-02 23:51:49,1020049
2025-09-02 23:51:49,1020055
2025-09-02 23:51:49,1020097
2025-09-02 23:51:49,1020158
2025-09-02 23:51:49,1020186
2025-09-02 23:51:49,1020310
2025-09-02 23:51:49,1020350
2025-09-02 23:51:49,1020579
2025-09-02 23:51:49,1020685
2025-09-02 23:51:49,1020817
2025-09-02 23:51:49,1020905
2025-09-02 23:51:49,1021003
2025-09-02 23:51:49,1020916
2025-09-02 23:51:49,1020951
2025-09-02 23:51:49,1021017
2025-09-02 23:51:49,1021173
2025-09-02 23:51:49,1021219
2025-09-02 23:51:49,1021216
2025-09-02 23:51:49,1021294
2025-09-02 23:51:49,1021317
2025-09-02 23:51:49,1021308
2025-09-02 23:51:49,1021310
2025-09-02 23:51:49,1021277
2025-09-02 23:51:49,1021382
2025-09-02 23:51:49,1021374
2025-09-02 23:51:49,1021360
2025-09-02 23:51:49,1021402
2025-09-02 23:51:49,1021399
2025-09-02 23:51:49,1021500
2025-09-02 23:51:49,1021473
2025-09-02 23:51:49,1021483
2025-09-02 23:51:49,1021559
2025-09-02 23:51:49,1021585
2025-09-02 23:51:49,1021555
2025-09-02 23:51:49,1021541
2025-09-02 23:51:49,1021400
2025-09-02 23:51:49,1021104
2025-09-02 23:51:49,1020799
2025-09-02 23:51:49,1020515
2025-09-02 23:51:49,1020266
2025-09-02 23:51:49,1020128
2025-09-02 23:51:49,1020066
2025-09-02 23:51:49,1020184
2025-09-02 23:51:49,1020277
2025-09-02 23:51:49,1020381
2025-09-02 23:51:49,1020605
2025-09-02 23:51:49,1020612
2025-09-02 23:51:49,1020662
2025-09-02 23:51:49,1020662
2025-09-02 23:51:49,1020636
2025-09-02 23:51:49,1020533
2025-09-02 23:51:49,1020569
2025-09-02 23:51:49,1020525
2025-09-02 23:51:49,1020405
2025-09-02 23:51:49,1020337
2025-09-02 23:51:49,1020385
2025-09-02 23:51:49,1020374
2025-09-02 23:51:49,1020351
2025-09-02 23:51:49,1020394
2025-09-02 23:51:49,1020418
2025-09-02 23:51:49,1020328
2025-09-02 23:51:49,1020226
2025-09-02 23:51:49,1020203
2025-09-02 23:51:49,1020187
2025-09-02 23:51:49,1020302
2025-09-02 23:51:49,1020362
2025-09-02 23:51:49,1020440
2025-09-02 23:51:49,1020582
2025-09-02 23:51:49,1020750
2025-09-02 23:51:50,1020785
2025-09-02 23:51:50,1020917
2025-09-02 23:51:50,1021042
2025-09-02 23:51:50,1021086
2025-09-02 23:51:50,1021070
2025-09-02 23:51:50,1021151
2025-09-02 23:51:50,1021167
2025-09-02 23:51:50,1021364
2025-09-02 23:51:50,1021461
2025-09-02 23:51:50,1021683
2025-09-02 23:51:50,1021684
2025-09-02 23:51:50,1021706
2025-09-02 23:51:50,1021842
2025-09-02 23:51:50,1021859
2025-09-02 23:51:50,1021915
2025-09-02 23:51:50,1021964
2025-09-02 23:51:50,1022024
2025-09-02 23:51:50,1022109
2025-09-02 23:51:50,1022040
2025-09-02 23:51:50,1022006
2025-09-02 23:51:50,1022056
2025-09-02 23:51:50,1022007
2025-09-02 23:51:50,1021965
2025-09-02 23:51:50,1021997
2025-09-02 23:51:50,1021908
2025-09-02 23:51:50,1021869
2025-09-02 23:51:50,1021871
2025-09-02 23:51:50,1021718
2025-09-02 23:51:50,1021691
2025-09-02 23:51:50,1021541
2025-09-02 23:51:50,1021636
2025-09-02 23:51:50,1021684
2025-09-02 23:51:50,1021681
2025-09-02 23:51:50,1021469
2025-09-02 23:51:50,1021341
2025-09-02 23:51:50,1021161
2025-09-02 23:51:50,1020849
2025-09-02 23:51:50,1020751
2025-09-02 23:51:50,1020698
2025-09-02 23:51:50,1020775
2025-09-02 23:51:50,1020949
2025-09-02 23:51:50,1021001
2025-09-02 23:51:50,1021117
2025-09-02 23:51:50,1021202
2025-09-02 23:51:50,1021171
2025-09-02 23:51:50,1021026
2025-09-02 23:51:50,1020992
2025-09-02 23:51:50,1020820
2025-09-02 23:51:50,1020796
2025-09-02 23:51:50,1020676
2025-09-02 23:51:50,1020682
2025-09-02 23:51:50,1020677
2025-09-02 23:51:50,1020754
2025-09-02 23:51:50,1020711
2025-09-02 23:51:50,1020837
2025-09-02 23:51:50,1020869
2025-09-02 23:51:50,1020826
2025-09-02 23:51:50,1020961
2025-09-02 23:51:50,1020971
2025-09-02 23:51:50,1020948
2025-09-02 23:51:50,1020932
2025-09-02 23:51:50,1020881
2025-09-02 23:51:50,1020875
2025-09-02 23:51:50,1020777
2025-09-02 23:51:50,1020758
2025-09-02 23:51:50,1020681
2025-09-02 23:51:50,1020773
2025-09-02 23:51:50,1020685
2025-09-02 23:51:50,1020581
2025-09-02 23:51:50,1020615
2025-09-02 23:51:50,1020601
2025-09-02 23:51:50,1020631
2025-09-02 23:51:50,1020675
2025-09-02 23:51:50,1020727
2025-09-02 23:51:50,1020722
2025-09-02 23:51:50,1020856
2025-09-02 23:51:50,1020829
2025-09-02 23:51:50,1020844
2025-09-02 23:51:50,1020893
2025-09-02 23:51:50,1020911
2025-09-02 23:51:50,1020982
2025-09-02 23:51:50,1021061
2025-09-02 23:51:50,1021038
2025-09-02 23:51:50,1021043
2025-09-02 23:51:50,1021122
2025-09-02 23:51:50,1021160
2025-09-02 23:51:50,1021060
2025-09-02 23:51:50,1020987
2025-09-02 23:51:50,1021037
2025-09-02 23:51:50,1021121
2025-09-02 23:51:50,1021133
2025-09-02 23:51:50,1021207
2025-09-02 23:51:50,1021190
2025-09-02 23:51:50,1021187
2025-09-02 23:51:50,1021241
2025-09-02 23:51:50,1021258
2025-09-02 23:51:50,1021256
2025-09-02 23:51:50,1021384
2025-09-02 23:51:50,1021436
2025-09-02 23:51:50,1021419
2025-09-02 23:51:51,1021217
2025-09-02 23:51:51,1021111
2025-09-02 23:51:51,1020932
2025-09-02 23:51:51,1020762
2025-09-02 23:51:51,1020762
2025-09-02 23:51:51,1020765
2025-09-02 23:51:51,1020982
2025-09-02 23:51:51,1021052
2025-09-02 23:51:51,1021193
2025-09-02 23:51:51,1021351
2025-09-02 23:51:51,1021339
2025-09-02 23:51:51,1021438
2025-09-02 23:51:51,1021291
2025-09-02 23:51:51,1021251
2025-09-02 23:51:51,1021265
2025-09-02 23:51:51,1021072
2025-09-02 23:51:51,1020955
2025-09-02 23:51:51,1020882
2025-09-02 23:51:51,1020792
2025-09-02 23:51:51,1020596
2025-09-02 23:51:51,1020525
2025-09-02 23:51:51,1020362
2025-09-02 23:51:51,1020348
2025-09-02 23:51:51,1020113
2025-09-02 23:51:51,1019962
2025-09-02 23:51:51,1019898
2025-09-02 23:51:51,1019747
2025-09-02 23:51:51,1019772
2025-09-02 23:51:51,1019801
2025-09-02 23:51:51,1019810
2025-09-02 23:51:51,1019978
2025-09-02 23:51:51,1020031
2025-09-02 23:51:51,1020105
2025-09-02 23:51:51,1020267
2025-09-02 23:51:51,1020356
2025-09-02 23:51:51,1020384
2025-09-02 23:51:51,1020500
2025-09-02 23:51:51,1020529
2025-09-02 23:51:51,1020547
2025-09-02 23:51:51,1020528
2025-09-02 23:51:51,1020257
2025-09-02 23:51:51,1020260
2025-09-02 23:51:51,1020156
2025-09-02 23:51:51,1020057
2025-09-02 23:51:51,1020091
2025-09-02 23:51:51,1020008
2025-09-02 23:51:51,1019924
2025-09-02 23:51:51,1019782
2025-09-02 23:51:51,1019855
2025-09-02 23:51:51,1019766
2025-09-02 23:51:51,1019798
2025-09-02 23:51:51,1019718
2025-09-02 23:51:51,1019787
2025-09-02 23:51:51,1019919
2025-09-02 23:51:51,1020068
2025-09-02 23:51:51,1020265
2025-09-02 23:51:51,1020369
2025-09-02 23:51:51,1020473
2025-09-02 23:51:51,1020535
2025-09-02 23:51:51,1020431
2025-09-02 23:51:51,1020404
2025-09-02 23:51:51,1020392
2025-09-02 23:51:51,1020465
2025-09-02 23:51:51,1020410
2025-09-02 23:51:51,1020421
2025-09-02 23:51:51,1020519
2025-09-02 23:51:51,1020292
2025-09-02 23:51:51,1020116
2025-09-02 23:51:51,1019937
2025-09-02 23:51:51,1019840
2025-09-02 23:51:51,1019836
2025-09-02 23:51:51,1019847
2025-09-02 23:51:51,1019947
2025-09-02 23:51:51,1020009
2025-09-02 23:51:51,1020065
2025-09-02 23:51:51,1020050
2025-09-02 23:51:51,1020051
2025-09-02 23:51:51,1019911
2025-09-02 23:51:51,1019828
2025-09-02 23:51:51,1019689
2025-09-02 23:51:51,1019619
2025-09-02 23:51:51,1019470
2025-09-02 23:51:51,1019425
2025-09-02 23:51:51,1019478
2025-09-02 23:51:51,1019476
2025-09-02 23:51:51,1019509
2025-09-02 23:51:51,1019617
2025-09-02 23:51:51,1019569
2025-09-02 23:51:51,1019584
2025-09-02 23:51:51,1019509
2025-09-02 23:51:51,1019455
2025-09-02 23:51:51,1019430
2025-09-02 23:51:51,1019313
2025-09-02 23:51:51,1019339
2025-09-02 23:51:51,1019333
2025-09-02 23:51:51,1019369
2025-09-02 23:51:51,1019310
2025-09-02 23:51:51,1019337
2025-09-02 23:51:51,1019391
2025-09-02 23:51:52,1019478
2025-09-02 23:51:52,1019525
2025-09-02 23:51:52,1019601
2025-09-02 23:51:52,1019709
2025-09-02 23:51:52,1019738
2025-09-02 23:51:52,1019868
2025-09-02 23:51:52,1019936
2025-09-02 23:51:52,1019912
2025-09-02 23:51:52,1019997
2025-09-02 23:51:52,1020001
2025-09-02 23:51:52,1019912
2025-09-02 23:51:52,1019954
2025-09-02 23:51:52,1019862
2025-09-02 23:51:52,1019890
2025-09-02 23:51:52,1019999
2025-09-02 23:51:52,1019971
2025-09-02 23:51:52,1019932
2025-09-02 23:51:52,1019950
2025-09-02 23:51:52,1019969
2025-09-02 23:51:52,1020008
2025-09-02 23:51:52,1020143
2025-09-02 23:51:52,1020188
2025-09-02 23:51:52,1020265
2025-09-02 23:51:52,1020326
2025-09-02 23:51:52,1020248
2025-09-02 23:51:52,1020278
2025-09-02 23:51:52,1020294
2025-09-02 23:51:52,1020407
2025-09-02 23:51:52,1020537
2025-09-02 23:51:52,1020498
2025-09-02 23:51:52,1020473
2025-09-02 23:51:52,1020325
2025-09-02 23:51:52,1020122
2025-09-02 23:51:52,1019936
2025-09-02 23:51:52,1019779
2025-09-02 23:51:52,1019749
2025-09-02 23:51:52,1019731
2025-09-02 23:51:52,1019836
2025-09-02 23:51:52,1019913
2025-09-02 23:51:52,1020057
2025-09-02 23:51:52,1020040
2025-09-02 23:51:52,1020092
2025-09-02 23:51:52,1020064
2025-09-02 23:51:52,1020119
2025-09-02 23:51:52,1020046
2025-09-02 23:51:52,1020120
2025-09-02 23:51:52,1020001
2025-09-02 23:51:52,1020027
2025-09-02 23:51:52,1019956
2025-09-02 23:51:52,1019895
2025-09-02 23:51:52,1019762
2025-09-02 23:51:52,1019710
2025-09-02 23:51:52,1019713
2025-09-02 23:51:52,1019581
2025-09-02 23:51:52,1019594
2025-09-02 23:51:52,1019437
2025-09-02 23:51:52,1019373
2025-09-02 23:51:52,1019320
2025-09-02 23:51:52,1019202
2025-09-02 23:51:52,1019272
2025-09-02 23:51:52,1019325
2025-09-02 23:51:52,1019329
2025-09-02 23:51:52,1019488
2025-09-02 23:51:52,1019500
2025-09-02 23:51:52,1019558
2025-09-02 23:51:52,1019691
2025-09-02 23:51:52,1019740
2025-09-02 23:51:52,1019711
2025-09-02 23:51:52,1019762
2025-09-02 23:51:52,1019719
2025-09-02 23:51:52,1019724
2025-09-02 23:51:52,1019630
2025-09-02 23:51:52,1019643
2025-09-02 23:51:52,1019551
2025-09-02 23:51:52,1019449
2025-09-02 23:51:52,1019434
2025-09-02 23:51:52,1019391
2025-09-02 23:51:52,1019230
2025-09-02 23:51:52,1019105
2025-09-02 23:51:52,1018888
2025-09-02 23:51:52,1018898
2025-09-02 23:51:52,1018755
2025-09-02 23:51:52,1018720
2025-09-02 23:51:52,1018662
2025-09-02 23:51:52,1018725
2025-09-02 23:51:52,1018823
2025-09-02 23:51:52,1018846
2025-09-02 23:51:52,1018866
2025-09-02 23:51:52,1018846
2025-09-02 23:51:52,1018729
2025-09-02 23:51:52,1018897
2025-09-02 23:51:52,1018993
2025-09-02 23:51:52,1019150
2025-09-02 23:51:52,1019216
2025-09-02 23:51:52,1019176
2025-09-02 23:51:52,1019187
2025-09-02 23:51:52,1019039
2025-09-02 23:51:52,1018921
2025-09-02 23:51:52,1018887
2025-09-02 23:51:52,1018869
2025-09-02 23:51:53,1018959
2025-09-02 23:51:53,1019085
2025-09-02 23:51:53,1019185
2025-09-02 23:51:53,1019287
2025-09-02 23:51:53,1019432
2025-09-02 23:51:53,1019531
2025-09-02 23:51:53,1019608
2025-09-02 23:51:53,1019665
2025-09-02 23:51:53,1019689
2025-09-02 23:51:53,1019741
2025-09-02 23:51:53,1019725
2025-09-02 23:51:53,1019839
2025-09-02 23:51:53,1019806
2025-09-02 23:51:53,1019925
2025-09-02 23:51:53,1019963
2025-09-02 23:51:53,1020177
2025-09-02 23:51:53,1020305
2025-09-02 23:51:53,1020418
2025-09-02 23:51:53,1020479
2025-09-02 23:51:53,1020430
2025-09-02 23:51:53,1020391
2025-09-02 23:51:53,1020403
2025-09-02 23:51:53,1020394
2025-09-02 23:51:53,1020315
2025-09-02 23:51:53,1020301
2025-09-02 23:51:53,1020312
2025-09-02 23:51:53,1020289
2025-09-02 23:51:53,1020202
2025-09-02 23:51:53,1020121
2025-09-02 23:51:53,1020102
2025-09-02 23:51:53,1020064
2025-09-02 23:51:53,1019906
2025-09-02 23:51:53,1019860
2025-09-02 23:51:53,1019758
2025-09-02 23:51:53,1019650
2025-09-02 23:51:53,1019611
2025-09-02 23:51:53,1019627
2025-09-02 23:51:53,1019584
2025-09-02 23:51:53,1019495
2025-09-02 23:51:53,1019486
2025-09-02 23:51:53,1019503
2025-09-02 23:51:53,1019499
2025-09-02 23:51:53,1019490
2025-09-02 23:51:53,1019354
2025-09-02 23:51:53,1019240
2025-09-02 23:51:53,1019159
2025-09-02 23:51:53,1019120
2025-09-02 23:51:53,1019174
2025-09-02 23:51:53,1019166
2025-09-02 23:51:53,1019171
2025-09-02 23:51:53,1019157
2025-09-02 23:51:53,1019133
2025-09-02 23:51:53,1019332
2025-09-02 23:51:53,1019332
2025-09-02 23:51:53,1019582
2025-09-02 23:51:53,1019741
2025-09-02 23:51:53,1019941
2025-09-02 23:51:53,1019988
2025-09-02 23:51:53,1019897
2025-09-02 23:51:53,1019830
2025-09-02 23:51:53,1019589
2025-09-02 23:51:53,1019533
2025-09-02 23:51:53,1019561
2025-09-02 23:51:53,1019611
2025-09-02 23:51:53,1019752
2025-09-02 23:51:53,1019901
2025-09-02 23:51:53,1020138
2025-09-02 23:51:53,1020258
2025-09-02 23:51:53,1020354
2025-09-02 23:51:53,1020317
2025-09-02 23:51:53,1020310
2025-09-02 23:51:53,1020241
2025-09-02 23:51:53,1020237
2025-09-02 23:51:53,1020071
2025-09-02 23:51:53,1020122
2025-09-02 23:51:53,1020062
2025-09-02 23:51:53,1020122
2025-09-02 23:51:53,1020082
2025-09-02 23:51:53,1020122
2025-09-02 23:51:53,1020213
2025-09-02 23:51:53,1020174
2025-09-02 23:51:53,1020122
2025-09-02 23:51:53,1020080
2025-09-02 23:51:53,1020030
2025-09-02 23:51:53,1019957
2025-09-02 23:51:53,1019904
2025-09-02 23:51:53,1019877
2025-09-02 23:51:53,1019866
2025-09-02 23:51:53,1019886
2025-09-02 23:51:53,1019936
2025-09-02 23:51:53,1019886
2025-09-02 23:51:53,1019950
2025-09-02 23:51:53,1020098
2025-09-02 23:51:53,1020024
2025-09-02 23:51:53,1020119
2025-09-02 23:51:53,1020073
2025-09-02 23:51:53,1020016
2025-09-02 23:51:53,1019918
2025-09-02 23:51:53,1019953
2025-09-02 23:51:53,1019910
2025-09-02 23:51:54,1019755
2025-09-02 23:51:54,1019731
2025-09-02 23:51:54,1019704
2025-09-02 23:51:54,1019692
2025-09-02 23:51:54,1019753
2025-09-02 23:51:54,1019631
2025-09-02 23:51:54,1019657
2025-09-02 23:51:54,1019684
2025-09-02 23:51:54,1019629
2025-09-02 23:51:54,1019629
2025-09-02 23:51:54,1019652
2025-09-02 23:51:54,1019569
2025-09-02 23:51:54,1019570
2025-09-02 23:51:54,1019603
2025-09-02 23:51:54,1019715
2025-09-02 23:51:54,1019677
2025-09-02 23:51:54,1019638
2025-09-02 23:51:54,1019448
2025-09-02 23:51:54,1019567
2025-09-02 23:51:54,1019487
2025-09-02 23:51:54,1019537
2025-09-02 23:51:54,1019717
2025-09-02 23:51:54,1019613
2025-09-02 23:51:54,1019477
2025-09-02 23:51:54,1019372
2025-09-02 23:51:54,1019290
2025-09-02 23:51:54,1019099
2025-09-02 23:51:54,1019177
2025-09-02 23:51:54,1019219
2025-09-02 23:51:54,1019392
2025-09-02 23:51:54,1019481
2025-09-02 23:51:54,1019660
2025-09-02 23:51:54,1019729
2025-09-02 23:51:54,1019753
2025-09-02 23:51:54,1019670
2025-09-02 23:51:54,1019463
2025-09-02 23:51:54,1019340
2025-09-02 23:51:54,1019261
2025-09-02 23:51:54,1019180
2025-09-02 23:51:54,1019093
2025-09-02 23:51:54,1018853
2025-09-02 23:51:54,1018962
2025-09-02 23:51:54,1018824
2025-09-02 23:51:54,1018857
2025-09-02 23:51:54,1018821
2025-09-02 23:51:54,1019002
2025-09-02 23:51:54,1018939
2025-09-02 23:51:54,1018921
2025-09-02 23:51:54,1018828
2025-09-02 23:51:54,1018921
2025-09-02 23:51:54,1018804
2025-09-02 23:51:54,1018874
2025-09-02 23:51:54,1018914
2025-09-02 23:51:54,1018817
2025-09-02 23:51:54,1018939
2025-09-02 23:51:54,1018941
2025-09-02 23:51:54,1018950
2025-09-02 23:51:54,1019095
2025-09-02 23:51:54,1019125
2025-09-02 23:51:54,1019079
2025-09-02 23:51:54,1019112
2025-09-02 23:51:54,1019070
2025-09-02 23:51:54,1019062
2025-09-02 23:51:54,1019081
2025-09-02 23:51:54,1019098
2025-09-02 23:51:54,1019109
2025-09-02 23:51:54,1019123
2025-09-02 23:51:54,1019119
2025-09-02 23:51:54,1018984
2025-09-02 23:51:54,1018895
2025-09-02 23:51:54,1018937
2025-09-02 23:51:54,1018865
2025-09-02 23:51:54,1018875
2025-09-02 23:51:54,1018873
2025-09-02 23:51:54,1018845
2025-09-02 23:51:54,1018876
2025-09-02 23:51:54,1018911
2025-09-02 23:51:54,1019010
2025-09-02 23:51:54,1019155
2025-09-02 23:51:54,1019193
2025-09-02 23:51:54,1019277
2025-09-02 23:51:54,1019331
2025-09-02 23:51:54,1019223
2025-09-02 23:51:54,1019230
2025-09-02 23:51:54,1019338
2025-09-02 23:51:54,1019380
2025-09-02 23:51:54,1019472
2025-09-02 23:51:54,1019440
2025-09-02 23:51:54,1019427
2025-09-02 23:51:54,1019226
2025-09-02 23:51:54,1019070
2025-09-02 23:51:54,1018980
2025-09-02 23:51:54,1018885
2025-09-02 23:51:54,1018957
2025-09-02 23:51:54,1019106
2025-09-02 23:51:54,1019065
2025-09-02 23:51:54,1019318
2025-09-02 23:51:54,1019274
2025-09-02 23:51:54,1019482
2025-09-02 23:51:54,1019469
2025-09-02 23:51:55,1019397
2025-09-02 23:51:55,1019319
2025-09-02 23:51:55,1019287
2025-09-02 23:51:55,1019092
2025-09-02 23:51:55,1018923
2025-09-02 23:51:55,1018773
2025-09-02 23:51:55,1018767
2025-09-02 23:51:55,1018733
2025-09-02 23:51:55,1018887
2025-09-02 23:51:55,1018808
2025-09-02 23:51:55,1018816
2025-09-02 23:51:55,1018819
2025-09-02 23:51:55,1018790
2025-09-02 23:51:55,1018776
2025-09-02 23:51:55,1018709
2025-09-02 23:51:55,1018722
2025-09-02 23:51:55,1018683
2025-09-02 23:51:55,1018677
2025-09-02 23:51:55,1018629
2025-09-02 23:51:55,1018662
2025-09-02 23:51:55,1018723
2025-09-02 23:51:55,1018801
2025-09-02 23:51:55,1018817
2025-09-02 23:51:55,1018815
2025-09-02 23:51:55,1018867
2025-09-02 23:51:55,1018947
2025-09-02 23:51:55,1018829
2025-09-02 23:51:55,1018923
2025-09-02 23:51:55,1018839
2025-09-02 23:51:55,1018835
2025-09-02 23:51:55,1018757
2025-09-02 23:51:55,1018797
2025-09-02 23:51:55,1018656
2025-09-02 23:51:55,1018712
2025-09-02 23:51:55,1018712
2025-09-02 23:51:55,1018728
2025-09-02 23:51:55,1018823
2025-09-02 23:51:55,1018772
2025-09-02 23:51:55,1018789
2025-09-02 23:51:55,1018702
2025-09-02 23:51:55,1018664
2025-09-02 23:51:55,1018627
2025-09-02 23:51:55,1018635
2025-09-02 23:51:55,1018558
2025-09-02 23:51:55,1018614
2025-09-02 23:51:55,1018496
2025-09-02 23:51:55,1018407
2025-09-02 23:51:55,1018421
2025-09-02 23:51:55,1018372
2025-09-02 23:51:55,1018409
2025-09-02 23:51:55,1018504
2025-09-02 23:51:55,1018662
2025-09-02 23:51:55,1018768
2025-09-02 23:51:55,1018807
2025-09-02 23:51:55,1018628
2025-09-02 23:51:55,1018505
2025-09-02 23:51:55,1018385
2025-09-02 23:51:55,1018255
2025-09-02 23:51:55,1018265
2025-09-02 23:51:55,1018281
2025-09-02 23:51:55,1018502
2025-09-02 23:51:55,1018560
2025-09-02 23:51:55,1018616
2025-09-02 23:51:55,1018736
2025-09-02 23:51:55,1018768
2025-09-02 23:51:55,1018758
2025-09-02 23:51:55,1018711
2025-09-02 23:51:55,1018772
2025-09-02 23:51:55,1018719
2025-09-02 23:51:55,1018725
2025-09-02 23:51:55,1018747
2025-09-02 23:51:55,1018705
2025-09-02 23:51:55,1018768
2025-09-02 23:51:55,1018673
2025-09-02 23:51:55,1018704
2025-09-02 23:51:55,1018624
2025-09-02 23:51:55,1018703
2025-09-02 23:51:55,1018743
2025-09-02 23:51:55,1018697
2025-09-02 23:51:55,1018641
2025-09-02 23:51:55,1018607
2025-09-02 23:51:55,1018407
2025-09-02 23:51:55,1018490
2025-09-02 23:51:55,1018554
2025-09-02 23:51:55,1018541
2025-09-02 23:51:55,1018564
2025-09-02 23:51:55,1018544
2025-09-02 23:51:55,1018622
2025-09-02 23:51:55,1018650
2025-09-02 23:51:55,1018557
2025-09-02 23:51:55,1018578
2025-09-02 23:51:55,1018468
2025-09-02 23:51:55,1018519
2025-09-02 23:51:55,1018487
2025-09-02 23:51:55,1018511
2025-09-02 23:51:55,1018578
2025-09-02 23:51:55,1018496
2025-09-02 23:51:55,1018531
2025-09-02 23:51:55,1018563
2025-09-02 23:51:56,1018560
2025-09-02 23:51:56,1018638
2025-09-02 23:51:56,1018594
2025-09-02 23:51:56,1018593
2025-09-02 23:51:56,1018687
2025-09-02 23:51:56,1018772
2025-09-02 23:51:56,1018846
2025-09-02 23:51:56,1018937
2025-09-02 23:51:56,1018938
2025-09-02 23:51:56,1018931
2025-09-02 23:51:56,1018848
2025-09-02 23:51:56,1018982
2025-09-02 23:51:56,1019004
2025-09-02 23:51:56,1019041
2025-09-02 23:51:56,1019101
2025-09-02 23:51:56,1019199
2025-09-02 23:51:53,1019171
2025-09-02 23:51:56,1019075
2025-09-02 23:51:56,1018857
2025-09-02 23:51:56,1018731
2025-09-02 23:51:56,1018577
2025-09-02 23:51:56,1018449
2025-09-02 23:51:56,1018385
2025-09-02 23:51:56,1018442
2025-09-02 23:51:56,1018564
2025-09-02 23:51:56,1018713
2025-09-02 23:51:56,1018645
2025-09-02 23:51:56,1018655
2025-09-02 23:51:56,1018627
2025-09-02 23:51:56,1018623
2025-09-02 23:51:56,1018562
2025-09-02 23:51:56,1018480
2025-09-02 23:51:56,1018410
2025-09-02 23:51:56,1018307
2025-09-02 23:51:56,1018238
2025-09-02 23:51:56,1018187
2025-09-02 23:51:56,1018119
2025-09-02 23:51:56,1018199
2025-09-02 23:51:56,1018196
2025-09-02 23:51:56,1018191
2025-09-02 23:51:56,1018200
2025-09-02 23:51:56,1018095
2025-09-02 23:51:56,1018006
2025-09-02 23:51:56,1017895
2025-09-02 23:51:56,1017816
2025-09-02 23:51:56,1017770
2025-09-02 23:51:56,1017709
2025-09-02 23:51:56,1017805
2025-09-02 23:51:56,1017860
2025-09-02 23:51:56,1017918
2025-09-02 23:51:56,1018027
2025-09-02 23:51:56,1018077
2025-09-02 23:51:56,1018094
2025-09-02 23:51:56,1018236
2025-09-02 23:51:56,1018290
2025-09-02 23:51:56,1018309
2025-09-02 23:51:56,1018383
2025-09-02 23:51:56,1018482
2025-09-02 23:51:56,1018638
2025-09-02 23:51:56,1018655
2025-09-02 23:51:56,1018590
2025-09-02 23:51:56,1018545
2025-09-02 23:51:56,1018654
2025-09-02 23:51:56,1018652
2025-09-02 23:51:56,1018818
2025-09-02 23:51:56,1018835
2025-09-02 23:51:56,1018990
2025-09-02 23:51:56,1019003
2025-09-02 23:51:56,1019075
2025-09-02 23:51:56,1019219
2025-09-02 23:51:56,1019354
2025-09-02 23:51:56,1019393
2025-09-02 23:51:56,1019583
2025-09-02 23:51:56,1019574
2025-09-02 23:51:56,1019524
2025-09-02 23:51:56,1019567
2025-09-02 23:51:56,1019637
2025-09-02 23:51:56,1019670
2025-09-02 23:51:56,1019727
2025-09-02 23:51:56,1019872
2025-09-02 23:51:56,1019791
2025-09-02 23:51:56,1019666
2025-09-02 23:51:56,1019346
2025-09-02 23:51:56,1019191
2025-09-02 23:51:56,1018873
2025-09-02 23:51:56,1018667
2025-09-02 23:51:56,1018460
2025-09-02 23:51:56,1018553
2025-09-02 23:51:56,1018556
2025-09-02 23:51:56,1018516
2025-09-02 23:51:56,1018647
2025-09-02 23:51:56,1018661
2025-09-02 23:51:56,1018681
2025-09-02 23:51:56,1018579
2025-09-02 23:51:56,1018612
2025-09-02 23:51:56,1018488
2025-09-02 23:51:56,1018338
2025-09-02 23:51:56,1018339
2025-09-02 23:51:56,1018410
2025-09-02 23:51:56,1018428
2025-09-02 23:51:57,1018434
2025-09-02 23:51:57,1018420
2025-09-02 23:51:57,1018489
2025-09-02 23:51:57,1018482
2025-09-02 23:51:57,1018608
2025-09-02 23:51:57,1018639
2025-09-02 23:51:57,1018579
2025-09-02 23:51:57,1018609
2025-09-02 23:51:57,1018585
2025-09-02 23:51:57,1018506
2025-09-02 23:51:57,1018482
2025-09-02 23:51:57,1018348
2025-09-02 23:51:57,1018336
2025-09-02 23:51:57,1018383
2025-09-02 23:51:57,1018410
2025-09-02 23:51:57,1018469
2025-09-02 23:51:57,1018441
2025-09-02 23:51:57,1018459
2025-09-02 23:51:57,1018525
2025-09-02 23:51:57,1018604
2025-09-02 23:51:57,1018608
2025-09-02 23:51:57,1018720
2025-09-02 23:51:57,1018724
2025-09-02 23:51:57,1018857
2025-09-02 23:51:57,1018886
2025-09-02 23:51:57,1018948
2025-09-02 23:51:57,1019119
2025-09-02 23:51:57,1019184
2025-09-02 23:51:57,1019275
2025-09-02 23:51:57,1019362
2025-09-02 23:51:57,1019396
2025-09-02 23:51:57,1019467
2025-09-02 23:51:57,1019465
2025-09-02 23:51:57,1019417
2025-09-02 23:51:57,1019460
2025-09-02 23:51:57,1019483
2025-09-02 23:51:57,1019440
2025-09-02 23:51:57,1019415
2025-09-02 23:51:57,1019418
2025-09-02 23:51:57,1019214
2025-09-02 23:51:57,1019210
2025-09-02 23:51:57,1019169
2025-09-02 23:51:57,1019243
2025-09-02 23:51:57,1019308
2025-09-02 23:51:57,1019285
2025-09-02 23:51:57,1019247
2025-09-02 23:51:57,1019078
2025-09-02 23:51:57,1018835
2025-09-02 23:51:57,1018617
2025-09-02 23:51:57,1018484
2025-09-02 23:51:57,1018322
2025-09-02 23:51:57,1018418
2025-09-02 23:51:57,1018475
2025-09-02 23:51:57,1018641
2025-09-02 23:51:57,1018807
2025-09-02 23:51:57,1018908
2025-09-02 23:51:57,1019024
2025-09-02 23:51:57,1019077
2025-09-02 23:51:57,1019008
2025-09-02 23:51:57,1018985
2025-09-02 23:51:57,1018943
2025-09-02 23:51:57,1019015
2025-09-02 23:51:57,1019022
2025-09-02 23:51:57,1019056
2025-09-02 23:51:57,1019004
2025-09-02 23:51:57,1019128
2025-09-02 23:51:57,1019059
2025-09-02 23:51:57,1019091
2025-09-02 23:51:57,1019104
2025-09-02 23:51:57,1019161
2025-09-02 23:51:57,1019076
2025-09-02 23:51:57,1019118
2025-09-02 23:51:57,1019083
2025-09-02 23:51:57,1019188
2025-09-02 23:51:57,1019191
2025-09-02 23:51:57,1019395
2025-09-02 23:51:57,1019520
2025-09-02 23:51:57,1019594
2025-09-02 23:51:57,1019764
2025-09-02 23:51:57,1019798
2025-09-02 23:51:57,1019845
2025-09-02 23:51:57,1019974
2025-09-02 23:51:57,1020048
2025-09-02 23:51:57,1020063
2025-09-02 23:51:57,1020127
2025-09-02 23:51:57,1020107
2025-09-02 23:51:57,1020186
2025-09-02 23:51:57,1020192
2025-09-02 23:51:57,1020226
2025-09-02 23:51:57,1020175
2025-09-02 23:51:57,1020151
2025-09-02 23:51:57,1020199
2025-09-02 23:51:57,1020227
2025-09-02 23:51:57,1020240
2025-09-02 23:51:57,1020238
2025-09-02 23:51:57,1020207
2025-09-02 23:51:57,1020204
2025-09-02 23:51:57,1020170
2025-09-02 23:51:57,1020031
2025-09-02 23:51:57,1020092
2025-09-02 23:51:58,1020086
2025-09-02 23:51:58,1020134
2025-09-02 23:51:58,1020184
2025-09-02 23:51:58,1020323
2025-09-02 23:51:58,1020343
2025-09-02 23:51:58,1020227
2025-09-02 23:51:58,1020132
2025-09-02 23:51:58,1020282
2025-09-02 23:51:58,1020398
2025-09-02 23:51:58,1020294
2025-09-02 23:51:58,1020411
2025-09-02 23:51:58,1020296
2025-09-02 23:51:58,1020181
2025-09-02 23:51:58,1019893
2025-09-02 23:51:58,1019769
2025-09-02 23:51:58,1019739
2025-09-02 23:51:58,1019715
2025-09-02 23:51:58,1019768
2025-09-02 23:51:58,1019875
2025-09-02 23:51:58,1019986
2025-09-02 23:51:58,1020128
2025-09-02 23:51:58,1020155
2025-09-02 23:51:58,1020115
2025-09-02 23:51:58,1020002
2025-09-02 23:51:58,1019858
2025-09-02 23:51:58,1019629
2025-09-02 23:51:58,1019419
2025-09-02 23:51:58,1019249
2025-09-02 23:51:58,1019191
2025-09-02 23:51:58,1019104
2025-09-02 23:51:58,1018959
2025-09-02 23:51:58,1018929
2025-09-02 23:51:58,1018902
2025-09-02 23:51:58,1018895
2025-09-02 23:51:58,1018876
2025-09-02 23:51:58,1018865
2025-09-02 23:51:58,1018798
2025-09-02 23:51:58,1018883
2025-09-02 23:51:58,1018840
2025-09-02 23:51:58,1018901
2025-09-02 23:51:58,1018848
2025-09-02 23:51:58,1018827
2025-09-02 23:51:58,1018907
2025-09-02 23:51:58,1019085
2025-09-02 23:51:58,1019239
2025-09-02 23:51:58,1019272
2025-09-02 23:51:58,1019494
2025-09-02 23:51:58,1019540
2025-09-02 23:51:58,1019664
2025-09-02 23:51:58,1019855
2025-09-02 23:51:58,1019848
2025-09-02 23:51:58,1019822
2025-09-02 23:51:58,1019888
2025-09-02 23:51:58,1019861
2025-09-02 23:51:58,1019792
2025-09-02 23:51:58,1019803
2025-09-02 23:51:58,1019777
2025-09-02 23:51:58,1019757
2025-09-02 23:51:58,1019774
2025-09-02 23:51:58,1019782
2025-09-02 23:51:58,1019778
2025-09-02 23:51:58,1019744
2025-09-02 23:51:58,1019634
2025-09-02 23:51:58,1019619
2025-09-02 23:51:58,1019490
2025-09-02 23:51:58,1019474
2025-09-02 23:51:58,1019574
2025-09-02 23:51:58,1019600
2025-09-02 23:51:58,1019486
2025-09-02 23:51:58,1019452
2025-09-02 23:51:58,1019430
2025-09-02 23:51:58,1019488
2025-09-02 23:51:58,1019582
2025-09-02 23:51:58,1019588
2025-09-02 23:51:58,1019568
2025-09-02 23:51:58,1019484
2025-09-02 23:51:58,1019266
2025-09-02 23:51:58,1019041
2025-09-02 23:51:58,1018744
2025-09-02 23:51:58,1018547
2025-09-02 23:51:58,1018401
2025-09-02 23:51:58,1018499
2025-09-02 23:51:58,1018579
2025-09-02 23:51:58,1018663
2025-09-02 23:51:58,1018806
2025-09-02 23:51:58,1018906
2025-09-02 23:51:58,1018961
2025-09-02 23:51:58,1018809
2025-09-02 23:51:58,1018756
2025-09-02 23:51:58,1018829
2025-09-02 23:51:58,1018762
2025-09-02 23:51:58,1018719
2025-09-02 23:51:58,1018750
2025-09-02 23:51:58,1018794
2025-09-02 23:51:58,1018762
2025-09-02 23:51:58,1018837
2025-09-02 23:51:58,1018841
2025-09-02 23:51:58,1018876
2025-09-02 23:51:58,1018806
2025-09-02 23:51:58,1018800
2025-09-02 23:51:59,1018707
2025-09-02 23:51:59,1018746
2025-09-02 23:51:59,1018752
2025-09-02 23:51:59,1018687
2025-09-02 23:51:59,1018777
2025-09-02 23:51:59,1018821
2025-09-02 23:51:59,1018930
2025-09-02 23:51:59,1018927
2025-09-02 23:51:59,1018986
2025-09-02 23:51:59,1019066
2025-09-02 23:51:59,1019138
2025-09-02 23:51:59,1019166
2025-09-02 23:51:59,1019133
2025-09-02 23:51:59,1019110
2025-09-02 23:51:59,1019128
2025-09-02 23:51:59,1019123
2025-09-02 23:51:59,1019140
2025-09-02 23:51:59,1019096
2025-09-02 23:51:59,1019147
2025-09-02 23:51:59,1019044
2025-09-02 23:51:59,1019107
2025-09-02 23:51:59,1018981
2025-09-02 23:51:59,1018991
2025-09-02 23:51:59,1018813
2025-09-02 23:51:59,1018779
2025-09-02 23:51:59,1018836
2025-09-02 23:51:59,1018779
2025-09-02 23:51:59,1018728
2025-09-02 23:51:59,1018799
2025-09-02 23:51:59,1018845
2025-09-02 23:51:59,1018793
2025-09-02 23:51:59,1018682
2025-09-02 23:51:59,1018728
2025-09-02 23:51:59,1018762
2025-09-02 23:51:59,1018945
2025-09-02 23:51:59,1019106
2025-09-02 23:51:59,1019357
2025-09-02 23:51:59,1019311
2025-09-02 23:51:59,1019312
2025-09-02 23:51:59,1019192
2025-09-02 23:51:59,1019152
2025-09-02 23:51:59,1019026
2025-09-02 23:51:59,1019131
2025-09-02 23:51:59,1019244
2025-09-02 23:51:59,1019381
2025-09-02 23:51:59,1019513
2025-09-02 23:51:59,1019671
2025-09-02 23:51:59,1019800
2025-09-02 23:51:59,1019694
2025-09-02 23:51:59,1019746
2025-09-02 23:51:59,1019707
2025-09-02 23:51:59,1019747
2025-09-02 23:51:59,1019668
2025-09-02 23:51:59,1019471
2025-09-02 23:51:59,1019339
2025-09-02 23:51:59,1019210
2025-09-02 23:51:59,1019152
2025-09-02 23:51:59,1019077
2025-09-02 23:51:59,1018988
2025-09-02 23:51:59,1018821
2025-09-02 23:51:59,1018750
2025-09-02 23:51:59,1018580
2025-09-02 23:51:59,1018485
2025-09-02 23:51:59,1018524
2025-09-02 23:51:59,1018438
2025-09-02 23:51:59,1018406
2025-09-02 23:51:59,1018403
2025-09-02 23:51:59,1018352
2025-09-02 23:51:59,1018471
2025-09-02 23:51:59,1018525
2025-09-02 23:51:59,1018490
2025-09-02 23:51:59,1018585
2025-09-02 23:51:59,1018545
2025-09-02 23:51:59,1018593
2025-09-02 23:51:59,1018633
2025-09-02 23:51:59,1018630
2025-09-02 23:51:59,1018664
2025-09-02 23:51:59,1018734
2025-09-02 23:51:59,1018734
2025-09-02 23:51:59,1018731
2025-09-02 23:51:59,1018795
2025-09-02 23:51:59,1018872
2025-09-02 23:51:59,1018803
2025-09-02 23:51:59,1018813
2025-09-02 23:51:59,1018919
2025-09-02 23:51:59,1018919
2025-09-02 23:51:59,1018801
2025-09-02 23:51:59,1018914
2025-09-02 23:51:59,1019024
2025-09-02 23:51:59,1019166
2025-09-02 23:51:59,1019155
2025-09-02 23:51:59,1019204
2025-09-02 23:51:59,1019219
2025-09-02 23:51:59,1019208
2025-09-02 23:51:59,1019289
2025-09-02 23:51:59,1019282
2025-09-02 23:51:59,1019338
2025-09-02 23:51:59,1019424
2025-09-02 23:51:59,1019240
2025-09-02 23:51:59,1019009
2025-09-02 23:52:00,1018812
2025-09-02 23:52:00,1018604
2025-09-02 23:52:00,1018330
2025-09-02 23:52:00,1018286
2025-09-02 23:52:00,1018293
2025-09-02 23:52:00,1018365
2025-09-02 23:52:00,1018487
2025-09-02 23:52:00,1018603
2025-09-02 23:52:00,1018658
2025-09-02 23:52:00,1018765
2025-09-02 23:52:00,1018705
2025-09-02 23:52:00,1018654
2025-09-02 23:52:00,1018684
2025-09-02 23:52:00,1018624
2025-09-02 23:52:00,1018595
2025-09-02 23:52:00,1018523
2025-09-02 23:52:00,1018505
2025-09-02 23:52:00,1018412
2025-09-02 23:52:00,1018414
2025-09-02 23:52:00,1018373
2025-09-02 23:52:00,1018363
2025-09-02 23:52:00,1018359
2025-09-02 23:52:00,1018331
2025-09-02 23:52:00,1018263
2025-09-02 23:52:00,1018303
2025-09-02 23:52:00,1018246
2025-09-02 23:52:00,1018313
2025-09-02 23:52:00,1018312
2025-09-02 23:52:00,1018300
2025-09-02 23:52:00,1018439
2025-09-02 23:52:00,1018500
2025-09-02 23:52:00,1018530
2025-09-02 23:52:00,1018715
2025-09-02 23:52:00,1018661
2025-09-02 23:52:00,1018754
2025-09-02 23:52:00,1018865
2025-09-02 23:52:00,1018837
2025-09-02 23:52:00,1018886
2025-09-02 23:52:00,1018938
2025-09-02 23:52:00,1018862
2025-09-02 23:52:00,1018929
2025-09-02 23:52:00,1018949
2025-09-02 23:52:00,1018874
2025-09-02 23:52:00,1018839
2025-09-02 23:52:00,1018861
2025-09-02 23:52:00,1018784
2025-09-02 23:52:00,1018788
2025-09-02 23:52:00,1018786
2025-09-02 23:52:00,1018762
2025-09-02 23:52:00,1018754
2025-09-02 23:52:00,1018738
2025-09-02 23:52:00,1018704
2025-09-02 23:52:00,1018788
2025-09-02 23:52:00,1018711
2025-09-02 23:52:00,1018718
2025-09-02 23:52:00,1018610
2025-09-02 23:52:00,1018638
2025-09-02 23:52:00,1018644
2025-09-02 23:52:00,1018785
2025-09-02 23:52:00,1018823
2025-09-02 23:52:00,1018867
2025-09-02 23:52:00,1018817
2025-09-02 23:52:00,1018602
2025-09-02 23:52:00,1018449
2025-09-02 23:52:00,1018445
2025-09-02 23:52:00,1018395
2025-09-02 23:52:00,1018385
2025-09-02 23:52:00,1018530
2025-09-02 23:52:00,1018642
2025-09-02 23:52:00,1018708
2025-09-02 23:52:00,1018913
2025-09-02 23:52:00,1018916
2025-09-02 23:52:00,1018972
2025-09-02 23:52:00,1019055
2025-09-02 23:52:00,1019049
2025-09-02 23:52:00,1019048
2025-09-02 23:52:00,1019079
2025-09-02 23:52:00,1019074
2025-09-02 23:52:00,1018947
2025-09-02 23:52:00,1019034
2025-09-02 23:52:00,1019025
2025-09-02 23:52:00,1018950
2025-09-02 23:52:00,1019046
2025-09-02 23:52:00,1019087
2025-09-02 23:52:00,1019066
2025-09-02 23:52:00,1019078
2025-09-02 23:52:00,1018987
2025-09-02 23:52:00,1018826
2025-09-02 23:52:00,1018825
2025-09-02 23:52:00,1018686
2025-09-02 23:52:00,1018720
2025-09-02 23:52:00,1018738
2025-09-02 23:52:00,1018725
2025-09-02 23:52:00,1018812
2025-09-02 23:52:00,1018819
2025-09-02 23:52:00,1018875
2025-09-02 23:52:00,1018916
2025-09-02 23:52:00,1018816
2025-09-02 23:52:00,1018915
2025-09-02 23:52:01,1018964
2025-09-02 23:52:01,1018892
2025-09-02 23:52:01,1018870
2025-09-02 23:52:01,1018775
2025-09-02 23:52:01,1018676
2025-09-02 23:52:01,1018665
2025-09-02 23:52:01,1018642
2025-09-02 23:52:01,1018595
2025-09-02 23:52:01,1018539
2025-09-02 23:52:01,1018668
2025-09-02 23:52:01,1018594
2025-09-02 23:52:01,1018605
2025-09-02 23:52:01,1018600
2025-09-02 23:52:01,1018564
2025-09-02 23:52:01,1018595
2025-09-02 23:52:01,1018583
2025-09-02 23:52:01,1018519
2025-09-02 23:52:01,1018544
2025-09-02 23:52:01,1018633
2025-09-02 23:52:01,1018690
2025-09-02 23:52:01,1018589
2025-09-02 23:52:01,1018534
2025-09-02 23:52:01,1018568
2025-09-02 23:52:01,1018532
2025-09-02 23:52:01,1018582
2025-09-02 23:52:01,1018672
2025-09-02 23:52:01,1018589
2025-09-02 23:52:01,1018465
2025-09-02 23:52:01,1018305
2025-09-02 23:52:01,1018168
2025-09-02 23:52:01,1018003
2025-09-02 23:52:01,1017978
2025-09-02 23:52:01,1018018
2025-09-02 23:52:01,1018080
2025-09-02 23:52:01,1018055
2025-09-02 23:52:01,1018151
2025-09-02 23:52:01,1018234
2025-09-02 23:52:01,1018306
2025-09-02 23:52:01,1018215
2025-09-02 23:52:01,1018155
2025-09-02 23:52:01,1018024
2025-09-02 23:52:01,1017964
2025-09-02 23:52:01,1017922
2025-09-02 23:52:01,1017886
2025-09-02 23:52:01,1017864
2025-09-02 23:52:01,1017808
2025-09-02 23:52:01,1017802
2025-09-02 23:52:01,1017895
2025-09-02 23:52:01,1017956
2025-09-02 23:52:01,1017860
2025-09-02 23:52:01,1017819
2025-09-02 23:52:01,1017700
2025-09-02 23:52:01,1017634
2025-09-02 23:52:01,1017580
2025-09-02 23:52:01,1017594
2025-09-02 23:52:01,1017605
2025-09-02 23:52:01,1017653
2025-09-02 23:52:01,1017648
2025-09-02 23:52:01,1017797
2025-09-02 23:52:01,1017967
2025-09-02 23:52:01,1018146
2025-09-02 23:52:01,1018261
2025-09-02 23:52:01,1018247
2025-09-02 23:52:01,1018280
2025-09-02 23:52:01,1018272
2025-09-02 23:52:01,1018308
2025-09-02 23:52:01,1018414
2025-09-02 23:52:01,1018444
2025-09-02 23:52:01,1018262
2025-09-02 23:52:01,1018307
2025-09-02 23:52:01,1018355
2025-09-02 23:52:01,1018438
2025-09-02 23:52:01,1018450
2025-09-02 23:52:01,1018374
2025-09-02 23:52:01,1018332
2025-09-02 23:52:01,1018315
2025-09-02 23:52:01,1018406
2025-09-02 23:52:01,1018349
2025-09-02 23:52:01,1018343
2025-09-02 23:52:01,1018308
2025-09-02 23:52:01,1018341
2025-09-02 23:52:01,1018353
2025-09-02 23:52:01,1018376
2025-09-02 23:52:01,1018384
2025-09-02 23:52:01,1018271
2025-09-02 23:52:01,1018302
2025-09-02 23:52:01,1018199
2025-09-02 23:52:01,1018205
2025-09-02 23:52:01,1018150
2025-09-02 23:52:01,1018161
2025-09-02 23:52:01,1018124
2025-09-02 23:52:01,1018103
2025-09-02 23:52:01,1017877
2025-09-02 23:52:01,1017643
2025-09-02 23:52:01,1017457
2025-09-02 23:52:01,1017351
2025-09-02 23:52:01,1017314
2025-09-02 23:52:01,1017423
2025-09-02 23:52:01,1017496
2025-09-02 23:52:01,1017582
2025-09-02 23:52:02,1017647
2025-09-02 23:52:02,1017802
2025-09-02 23:52:02,1017917
2025-09-02 23:52:02,1017772
2025-09-02 23:52:02,1017790
2025-09-02 23:52:02,1017696
2025-09-02 23:52:02,1017696
2025-09-02 23:52:02,1017687
2025-09-02 23:52:02,1017670
2025-09-02 23:52:02,1017654
2025-09-02 23:52:02,1017670
2025-09-02 23:52:02,1017743
2025-09-02 23:52:02,1017795
2025-09-02 23:52:02,1017782
2025-09-02 23:52:02,1017714
2025-09-02 23:52:02,1017592
2025-09-02 23:52:02,1017553
2025-09-02 23:52:02,1017366
2025-09-02 23:52:02,1017403
2025-09-02 23:52:02,1017359
2025-09-02 23:52:02,1017313
2025-09-02 23:52:02,1017299
2025-09-02 23:52:02,1017344
2025-09-02 23:52:02,1017311
2025-09-02 23:52:02,1017334
2025-09-02 23:52:02,1017337
2025-09-02 23:52:02,1017398
2025-09-02 23:52:02,1017460
2025-09-02 23:52:02,1017511
2025-09-02 23:52:02,1017482
2025-09-02 23:52:02,1017442
2025-09-02 23:52:02,1017397
2025-09-02 23:52:02,1017383
2025-09-02 23:52:02,1017258
2025-09-02 23:52:02,1017277
2025-09-02 23:52:02,1017290
2025-09-02 23:52:02,1017279
2025-09-02 23:52:02,1017339
2025-09-02 23:52:02,1017397
2025-09-02 23:52:02,1017420
2025-09-02 23:52:02,1017473
2025-09-02 23:52:02,1017413
2025-09-02 23:52:02,1017342
2025-09-02 23:52:02,1017317
2025-09-02 23:52:02,1017320
2025-09-02 23:52:02,1017300
2025-09-02 23:52:02,1017311
2025-09-02 23:52:02,1017428
2025-09-02 23:52:02,1017358
2025-09-02 23:52:02,1017363
2025-09-02 23:52:02,1017319
2025-09-02 23:52:02,1017467
2025-09-02 23:52:02,1017664
2025-09-02 23:52:02,1017757
2025-09-02 23:52:02,1017700
2025-09-02 23:52:02,1017765
2025-09-02 23:52:02,1017572
2025-09-02 23:52:02,1017373
2025-09-02 23:52:02,1017222
2025-09-02 23:52:02,1016938
2025-09-02 23:52:02,1017048
2025-09-02 23:52:02,1017073
2025-09-02 23:52:02,1017172
2025-09-02 23:52:02,1017348
2025-09-02 23:52:02,1017432
2025-09-02 23:52:02,1017511
2025-09-02 23:52:02,1017588
2025-09-02 23:52:02,1017515
2025-09-02 23:52:02,1017486
2025-09-02 23:52:02,1017477
2025-09-02 23:52:02,1017482
2025-09-02 23:52:02,1017544
2025-09-02 23:52:02,1017543
2025-09-02 23:52:02,1017783
2025-09-02 23:52:02,1017978
2025-09-02 23:52:02,1018109
2025-09-02 23:52:02,1018369
2025-09-02 23:52:02,1018479
2025-09-02 23:52:02,1018556
2025-09-02 23:52:02,1018633
2025-09-02 23:52:02,1018620
2025-09-02 23:52:02,1018564
2025-09-02 23:52:02,1018636
2025-09-02 23:52:02,1018542
2025-09-02 23:52:02,1018534
2025-09-02 23:52:02,1018517
2025-09-02 23:52:02,1018537
2025-09-02 23:52:02,1018652
2025-09-02 23:52:02,1018773
2025-09-02 23:52:02,1018894
2025-09-02 23:52:02,1018890
2025-09-02 23:52:02,1018975
2025-09-02 23:52:02,1018898
2025-09-02 23:52:02,1018879
2025-09-02 23:52:02,1018820
2025-09-02 23:52:02,1018644
2025-09-02 23:52:02,1018576
2025-09-02 23:52:02,1018384
2025-09-02 23:52:02,1018251
2025-09-02 23:52:02,1018134
2025-09-02 23:52:03,1017916
2025-09-02 23:52:03,1017919
2025-09-02 23:52:03,1017835
2025-09-02 23:52:03,1017794
2025-09-02 23:52:03,1017598
2025-09-02 23:52:03,1017713
2025-09-02 23:52:03,1017605
2025-09-02 23:52:03,1017527
2025-09-02 23:52:03,1017461
2025-09-02 23:52:03,1017473
2025-09-02 23:52:03,1017600
2025-09-02 23:52:03,1017656
2025-09-02 23:52:03,1017633
2025-09-02 23:52:03,1017837
2025-09-02 23:52:03,1017842
2025-09-02 23:52:03,1017864
2025-09-02 23:52:03,1017809
2025-09-02 23:52:03,1017909
2025-09-02 23:52:03,1018032
2025-09-02 23:52:03,1018152
2025-09-02 23:52:03,1018144
2025-09-02 23:52:03,1018076
2025-09-02 23:52:03,1017930
2025-09-02 23:52:03,1017819
2025-09-02 23:52:03,1017660
2025-09-02 23:52:03,1017573
2025-09-02 23:52:03,1017751
2025-09-02 23:52:03,1017897
2025-09-02 23:52:03,1018022
2025-09-02 23:52:03,1018250
2025-09-02 23:52:03,1018354
2025-09-02 23:52:03,1018525
2025-09-02 23:52:03,1018606
2025-09-02 23:52:03,1018576
2025-09-02 23:52:03,1018498
2025-09-02 23:52:03,1018511
2025-09-02 23:52:03,1018536
2025-09-02 23:52:03,1018529
2025-09-02 23:52:03,1018456
2025-09-02 23:52:03,1018444
2025-09-02 23:52:03,1018550
2025-09-02 23:52:03,1018562
2025-09-02 23:52:03,1018655
2025-09-02 23:52:03,1018730
2025-09-02 23:52:03,1018718
2025-09-02 23:52:03,1018771
2025-09-02 23:52:03,1018702
2025-09-02 23:52:03,1018783
2025-09-02 23:52:03,1018756
2025-09-02 23:52:03,1018782
2025-09-02 23:52:03,1018860
2025-09-02 23:52:03,1018834
2025-09-02 23:52:03,1018870
2025-09-02 23:52:03,1018970
2025-09-02 23:52:03,1018997
2025-09-02 23:52:03,1019105
2025-09-02 23:52:03,1019170
2025-09-02 23:52:03,1019257
2025-09-02 23:52:03,1019394
2025-09-02 23:52:03,1019394
2025-09-02 23:52:03,1019524
2025-09-02 23:52:03,1019569
2025-09-02 23:52:03,1019532
2025-09-02 23:52:03,1019501
2025-09-02 23:52:03,1019550
2025-09-02 23:52:03,1019593
2025-09-02 23:52:03,1019646
2025-09-02 23:52:03,1019559
2025-09-02 23:52:03,1019482
2025-09-02 23:52:03,1019491
2025-09-02 23:52:03,1019457
2025-09-02 23:52:03,1019501
2025-09-02 23:52:03,1019460
2025-09-02 23:52:03,1019464
2025-09-02 23:52:03,1019478
2025-09-02 23:52:03,1019461
2025-09-02 23:52:03,1019379
2025-09-02 23:52:03,1019403
2025-09-02 23:52:03,1019421
2025-09-02 23:52:03,1019451
2025-09-02 23:52:03,1019429
2025-09-02 23:52:03,1019387
2025-09-02 23:52:03,1019295
2025-09-02 23:52:03,1019255
2025-09-02 23:52:03,1019369
2025-09-02 23:52:03,1019331
2025-09-02 23:52:03,1019357
2025-09-02 23:52:03,1019342
2025-09-02 23:52:03,1019164
2025-09-02 23:52:03,1018955
2025-09-02 23:52:03,1018732
2025-09-02 23:52:03,1018570
2025-09-02 23:52:03,1018399
2025-09-02 23:52:03,1018354
2025-09-02 23:52:03,1018319
2025-09-02 23:52:03,1018426
2025-09-02 23:52:03,1018511
2025-09-02 23:52:03,1018506
2025-09-02 23:52:03,1018613
2025-09-02 23:52:03,1018579
2025-09-02 23:52:04,1018508
2025-09-02 23:52:04,1018424
2025-09-02 23:52:04,1018412
2025-09-02 23:52:04,1018270
2025-09-02 23:52:04,1018251
2025-09-02 23:52:04,1018265
2025-09-02 23:52:04,1018261
2025-09-02 23:52:04,1018274
2025-09-02 23:52:04,1018227
2025-09-02 23:52:04,1018247
2025-09-02 23:52:04,1018385
2025-09-02 23:52:04,1018355
2025-09-02 23:52:04,1018380
2025-09-02 23:52:04,1018326
2025-09-02 23:52:04,1018323
2025-09-02 23:52:04,1018235
2025-09-02 23:52:04,1018248
2025-09-02 23:52:04,1018214
2025-09-02 23:52:04,1018179
2025-09-02 23:52:04,1018301
2025-09-02 23:52:04,1018238
2025-09-02 23:52:04,1018341
2025-09-02 23:52:04,1018367
2025-09-02 23:52:04,1018311
2025-09-02 23:52:04,1018376
2025-09-02 23:52:04,1018441
2025-09-02 23:52:04,1018406
2025-09-02 23:52:04,1018420
2025-09-02 23:52:04,1018409
2025-09-02 23:52:04,1018406
2025-09-02 23:52:04,1018330
2025-09-02 23:52:04,1018411
2025-09-02 23:52:04,1018407
2025-09-02 23:52:04,1018420
2025-09-02 23:52:04,1018395
2025-09-02 23:52:04,1018480
2025-09-02 23:52:04,1018418
2025-09-02 23:52:04,1018452
2025-09-02 23:52:04,1018562
2025-09-02 23:52:04,1018524
2025-09-02 23:52:04,1018621
2025-09-02 23:52:04,1018667
2025-09-02 23:52:04,1018639
2025-09-02 23:52:04,1018612
2025-09-02 23:52:04,1018557
2025-09-02 23:52:04,1018576
2025-09-02 23:52:04,1018528
2025-09-02 23:52:04,1018574
2025-09-02 23:52:04,1018547
2025-09-02 23:52:04,1018568
2025-09-02 23:52:04,1018552
2025-09-02 23:52:04,1018652
2025-09-02 23:52:04,1018824
2025-09-02 23:52:04,1018984
2025-09-02 23:52:04,1019125
2025-09-02 23:52:04,1019066
2025-09-02 23:52:04,1019061
2025-09-02 23:52:04,1018892
2025-09-02 23:52:04,1018729
2025-09-02 23:52:04,1018777
2025-09-02 23:52:04,1018839
2025-09-02 23:52:04,1018825
2025-09-02 23:52:04,1019007
2025-09-02 23:52:04,1019148
2025-09-02 23:52:04,1019261
2025-09-02 23:52:04,1019291
2025-09-02 23:52:04,1019462
2025-09-02 23:52:04,1019343
2025-09-02 23:52:04,1019384
2025-09-02 23:52:04,1019415
2025-09-02 23:52:04,1019283
2025-09-02 23:52:04,1019180
2025-09-02 23:52:04,1019142
2025-09-02 23:52:04,1019063
2025-09-02 23:52:04,1019073
2025-09-02 23:52:04,1019047
2025-09-02 23:52:04,1019020
2025-09-02 23:52:04,1019017
2025-09-02 23:52:04,1018958
2025-09-02 23:52:04,1018956
2025-09-02 23:52:04,1018946
2025-09-02 23:52:04,1018828
2025-09-02 23:52:04,1018920
2025-09-02 23:52:04,1018976
2025-09-02 23:52:04,1018908
2025-09-02 23:52:04,1019035
2025-09-02 23:52:04,1019111
2025-09-02 23:52:04,1019119
2025-09-02 23:52:04,1019277
2025-09-02 23:52:04,1019416
2025-09-02 23:52:04,1019384
2025-09-02 23:52:04,1019380
2025-09-02 23:52:04,1019423
2025-09-02 23:52:04,1019568
2025-09-02 23:52:04,1019558
2025-09-02 23:52:04,1019587
2025-09-02 23:52:04,1019555
2025-09-02 23:52:04,1019541
2025-09-02 23:52:04,1019457
2025-09-02 23:52:04,1019424
2025-09-02 23:52:05,1019351
2025-09-02 23:52:05,1019380
2025-09-02 23:52:05,1019425
2025-09-02 23:52:05,1019219
2025-09-02 23:52:05,1019308
2025-09-02 23:52:05,1019267
2025-09-02 23:52:05,1019323
2025-09-02 23:52:05,1019284
2025-09-02 23:52:05,1019384
2025-09-02 23:52:05,1019406
2025-09-02 23:52:05,1019424
2025-09-02 23:52:05,1019418
2025-09-02 23:52:05,1019385
2025-09-02 23:52:05,1019287
2025-09-02 23:52:05,1019248
2025-09-02 23:52:05,1019156
2025-09-02 23:52:05,1019169
2025-09-02 23:52:05,1019151
2025-09-02 23:52:05,1019086
2025-09-02 23:52:05,1019134
2025-09-02 23:52:05,1018863
2025-09-02 23:52:05,1018650
2025-09-02 23:52:05,1018561
2025-09-02 23:52:05,1018389
2025-09-02 23:52:05,1018378
2025-09-02 23:52:05,1018364
2025-09-02 23:52:05,1018477
2025-09-02 23:52:05,1018582
2025-09-02 23:52:05,1018687
2025-09-02 23:52:05,1018828
2025-09-02 23:52:05,1018801
2025-09-02 23:52:05,1018872
2025-09-02 23:52:05,1018869
2025-09-02 23:52:05,1018873
2025-09-02 23:52:05,1018934
2025-09-02 23:52:05,1018938
2025-09-02 23:52:05,1018914
2025-09-02 23:52:05,1018857
2025-09-02 23:52:05,1018883
2025-09-02 23:52:05,1018825
2025-09-02 23:52:05,1018838
2025-09-02 23:52:05,1018869
2025-09-02 23:52:05,1018927
2025-09-02 23:52:05,1018824
2025-09-02 23:52:05,1018890
2025-09-02 23:52:05,1018845
2025-09-02 23:52:05,1018726
2025-09-02 23:52:05,1018758
2025-09-02 23:52:05,1018718
2025-09-02 23:52:05,1018688
2025-09-02 23:52:05,1018786
2025-09-02 23:52:05,1018841
2025-09-02 23:52:05,1018856
2025-09-02 23:52:05,1018973
2025-09-02 23:52:05,1019089
2025-09-02 23:52:05,1019151
2025-09-02 23:52:05,1019149
2025-09-02 23:52:05,1019193
2025-09-02 23:52:05,1019182
2025-09-02 23:52:05,1019260
2025-09-02 23:52:05,1019217
2025-09-02 23:52:05,1019315
2025-09-02 23:52:05,1019241
2025-09-02 23:52:05,1019270
2025-09-02 23:52:05,1019373
2025-09-02 23:52:05,1019410
2025-09-02 23:52:05,1019441
2025-09-02 23:52:05,1019547
2025-09-02 23:52:05,1019604
2025-09-02 23:52:05,1019596
2025-09-02 23:52:05,1019566
2025-09-02 23:52:05,1019619
2025-09-02 23:52:05,1019596
2025-09-02 23:52:05,1019622
2025-09-02 23:52:05,1019611
2025-09-02 23:52:05,1019757
2025-09-02 23:52:05,1019843
2025-09-02 23:52:05,1019805
2025-09-02 23:52:05,1019847
2025-09-02 23:52:05,1019927
2025-09-02 23:52:05,1020080
2025-09-02 23:52:05,1020199
2025-09-02 23:52:05,1020301
2025-09-02 23:52:05,1020315
2025-09-02 23:52:05,1020190
2025-09-02 23:52:05,1020083
2025-09-02 23:52:05,1019939
2025-09-02 23:52:05,1019829
2025-09-02 23:52:05,1019878
2025-09-02 23:52:05,1019881
2025-09-02 23:52:05,1020056
2025-09-02 23:52:05,1020160
2025-09-02 23:52:05,1020230
2025-09-02 23:52:05,1020285
2025-09-02 23:52:05,1020323
2025-09-02 23:52:05,1020217
2025-09-02 23:52:05,1020140
2025-09-02 23:52:05,1020061
2025-09-02 23:52:05,1019918
2025-09-02 23:52:06,1019876
2025-09-02 23:52:06,1019803
2025-09-02 23:52:06,1019761
2025-09-02 23:52:06,1019569
2025-09-02 23:52:06,1019512
2025-09-02 23:52:06,1019469
2025-09-02 23:52:06,1019357
2025-09-02 23:52:06,1019305
2025-09-02 23:52:06,1019277
2025-09-02 23:52:06,1019212
2025-09-02 23:52:06,1019094
2025-09-02 23:52:06,1018964
2025-09-02 23:52:06,1018952
2025-09-02 23:52:06,1019009
2025-09-02 23:52:06,1019106
2025-09-02 23:52:06,1019162
2025-09-02 23:52:06,1019245
2025-09-02 23:52:06,1019297
2025-09-02 23:52:06,1019484
2025-09-02 23:52:06,1019654
2025-09-02 23:52:06,1019754
2025-09-02 23:52:06,1019952
2025-09-02 23:52:06,1020047
2025-09-02 23:52:06,1020156
2025-09-02 23:52:06,1020198
2025-09-02 23:52:06,1020237
2025-09-02 23:52:06,1020144
2025-09-02 23:52:06,1020218
2025-09-02 23:52:06,1020135
2025-09-02 23:52:06,1020081
2025-09-02 23:52:06,1020113
2025-09-02 23:52:06,1020136
2025-09-02 23:52:06,1020168
2025-09-02 23:52:06,1020189
2025-09-02 23:52:06,1020215
2025-09-02 23:52:06,1020282
2025-09-02 23:52:06,1020169
2025-09-02 23:52:06,1020284
2025-09-02 23:52:06,1020256
2025-09-02 23:52:06,1020304
2025-09-02 23:52:06,1020317
2025-09-02 23:52:06,1020342
2025-09-02 23:52:06,1020300
2025-09-02 23:52:06,1020347
2025-09-02 23:52:06,1020315
2025-09-02 23:52:06,1020475
2025-09-02 23:52:06,1020521
2025-09-02 23:52:06,1020606
2025-09-02 23:52:06,1020583
2025-09-02 23:52:06,1020451
2025-09-02 23:52:06,1020297
2025-09-02 23:52:06,1020117
2025-09-02 23:52:06,1020067
2025-09-02 23:52:06,1020029
2025-09-02 23:52:06,1020064
2025-09-02 23:52:06,1020285
2025-09-02 23:52:06,1020409
2025-09-02 23:52:06,1020491
2025-09-02 23:52:06,1020553
2025-09-02 23:52:06,1020633
2025-09-02 23:52:06,1020577
2025-09-02 23:52:06,1020510
2025-09-02 23:52:06,1020609
2025-09-02 23:52:06,1020516
2025-09-02 23:52:06,1020485
2025-09-02 23:52:06,1020393
2025-09-02 23:52:06,1020385
2025-09-02 23:52:06,1020382
2025-09-02 23:52:06,1020410
2025-09-02 23:52:06,1020323
2025-09-02 23:52:06,1020326
2025-09-02 23:52:06,1020209
2025-09-02 23:52:06,1020160
2025-09-02 23:52:06,1020021
2025-09-02 23:52:06,1019839
2025-09-02 23:52:06,1019767
2025-09-02 23:52:06,1019642
2025-09-02 23:52:06,1019459
2025-09-02 23:52:06,1019449
2025-09-02 23:52:06,1019434
2025-09-02 23:52:06,1019427
2025-09-02 23:52:06,1019494
2025-09-02 23:52:06,1019592
2025-09-02 23:52:06,1019684
2025-09-02 23:52:06,1019666
2025-09-02 23:52:06,1019675
2025-09-02 23:52:06,1019659
2025-09-02 23:52:06,1019628
2025-09-02 23:52:06,1019609
2025-09-02 23:52:06,1019578
2025-09-02 23:52:06,1019479
2025-09-02 23:52:06,1019482
2025-09-02 23:52:06,1019543
2025-09-02 23:52:06,1019531
2025-09-02 23:52:06,1019492
2025-09-02 23:52:06,1019505
2025-09-02 23:52:06,1019511
2025-09-02 23:52:06,1019487
2025-09-02 23:52:06,1019535
2025-09-02 23:52:06,1019507
2025-09-02 23:52:07,1019547
2025-09-02 23:52:07,1019477
2025-09-02 23:52:07,1019498
2025-09-02 23:52:07,1019452
2025-09-02 23:52:07,1019514
2025-09-02 23:52:07,1019533
2025-09-02 23:52:07,1019495
2025-09-02 23:52:07,1019394
2025-09-02 23:52:07,1019472
2025-09-02 23:52:07,1019510
2025-09-02 23:52:07,1019617
2025-09-02 23:52:07,1019721
2025-09-02 23:52:07,1019764
2025-09-02 23:52:07,1019733
2025-09-02 23:52:07,1019584
2025-09-02 23:52:07,1019349
2025-09-02 23:52:07,1019223
2025-09-02 23:52:07,1019042
2025-09-02 23:52:07,1018968
2025-09-02 23:52:07,1018871
2025-09-02 23:52:07,1018978
2025-09-02 23:52:07,1019169
2025-09-02 23:52:07,1019374
2025-09-02 23:52:07,1019399
2025-09-02 23:52:07,1019323
2025-09-02 23:52:07,1019409
2025-09-02 23:52:07,1019478
2025-09-02 23:52:07,1019503
2025-09-02 23:52:07,1019345
2025-09-02 23:52:07,1019335
2025-09-02 23:52:07,1019260
2025-09-02 23:52:07,1019284
2025-09-02 23:52:07,1019240
2025-09-02 23:52:07,1019217
2025-09-02 23:52:07,1019182
2025-09-02 23:52:07,1019224
2025-09-02 23:52:07,1019222
2025-09-02 23:52:07,1019171
2025-09-02 23:52:07,1019037
2025-09-02 23:52:07,1019070
2025-09-02 23:52:07,1019078
2025-09-02 23:52:07,1019018
2025-09-02 23:52:07,1018999
2025-09-02 23:52:07,1019110
2025-09-02 23:52:07,1019231
2025-09-02 23:52:07,1019370
2025-09-02 23:52:07,1019553
2025-09-02 23:52:07,1019734
2025-09-02 23:52:07,1019835
2025-09-02 23:52:07,1020022
2025-09-02 23:52:07,1019934
2025-09-02 23:52:07,1020133
2025-09-02 23:52:07,1020185
2025-09-02 23:52:07,1020212
2025-09-02 23:52:07,1020230
2025-09-02 23:52:07,1020236
2025-09-02 23:52:07,1020314
2025-09-02 23:52:07,1020380
2025-09-02 23:52:07,1020381
2025-09-02 23:52:07,1020379
2025-09-02 23:52:07,1020294
2025-09-02 23:52:07,1020270
2025-09-02 23:52:07,1020184
2025-09-02 23:52:07,1020105
2025-09-02 23:52:07,1020046
2025-09-02 23:52:07,1020029
2025-09-02 23:52:07,1019927
2025-09-02 23:52:07,1020017
2025-09-02 23:52:07,1020054
2025-09-02 23:52:07,1020048
2025-09-02 23:52:07,1020026
2025-09-02 23:52:07,1020083
2025-09-02 23:52:07,1020082
2025-09-02 23:52:07,1020007
2025-09-02 23:52:07,1020236
2025-09-02 23:52:07,1020373
2025-09-02 23:52:07,1020345
2025-09-02 23:52:07,1020259
2025-09-02 23:52:07,1020183
2025-09-02 23:52:07,1020055
2025-09-02 23:52:07,1019874
2025-09-02 23:52:07,1019802
2025-09-02 23:52:07,1019852
2025-09-02 23:52:07,1019864
2025-09-02 23:52:07,1019985
2025-09-02 23:52:07,1020114
2025-09-02 23:52:07,1020162
2025-09-02 23:52:07,1020174
2025-09-02 23:52:07,1020238
2025-09-02 23:52:07,1020309
2025-09-02 23:52:07,1020165
2025-09-02 23:52:07,1020208
2025-09-02 23:52:07,1020222
2025-09-02 23:52:07,1020112
2025-09-02 23:52:07,1020131
2025-09-02 23:52:07,1020117
2025-09-02 23:52:07,1020198
2025-09-02 23:52:07,1020181
2025-09-02 23:52:07,1020144
2025-09-02 23:52:07,1020101
2025-09-02 23:52:07,1019992
2025-09-02 23:52:08,1019926
2025-09-02 23:52:08,1019953
2025-09-02 23:52:08,1019893
2025-09-02 23:52:08,1019828
2025-09-02 23:52:08,1019818
2025-09-02 23:52:08,1019769
2025-09-02 23:52:08,1019839
2025-09-02 23:52:08,1019923
2025-09-02 23:52:08,1019895
2025-09-02 23:52:08,1019969
2025-09-02 23:52:08,1020090
2025-09-02 23:52:08,1020169
2025-09-02 23:52:08,1020128
2025-09-02 23:52:08,1020270
2025-09-02 23:52:08,1020244
2025-09-02 23:52:08,1020254
2025-09-02 23:52:08,1020226
2025-09-02 23:52:08,1020128
2025-09-02 23:52:08,1020137
2025-09-02 23:52:08,1020014
2025-09-02 23:52:08,1019971
2025-09-02 23:52:08,1019932
2025-09-02 23:52:08,1019832
2025-09-02 23:52:08,1019815
2025-09-02 23:52:08,1019784
2025-09-02 23:52:08,1019640
2025-09-02 23:52:08,1019642
2025-09-02 23:52:08,1019676
2025-09-02 23:52:08,1019686
2025-09-02 23:52:08,1019657
2025-09-02 23:52:08,1019654
2025-09-02 23:52:08,1019652
2025-09-02 23:52:08,1019652
2025-09-02 23:52:08,1019727
2025-09-02 23:52:08,1019870
2025-09-02 23:52:08,1019991
2025-09-02 23:52:08,1020043
2025-09-02 23:52:08,1020111
2025-09-02 23:52:08,1020086
2025-09-02 23:52:08,1019900
2025-09-02 23:52:08,1019803
2025-09-02 23:52:08,1019724
2025-09-02 23:52:08,1019736
2025-09-02 23:52:08,1019822
2025-09-02 23:52:08,1020004
2025-09-02 23:52:08,1020026
2025-09-02 23:52:08,1020113
2025-09-02 23:52:08,1020182
2025-09-02 23:52:08,1020048
2025-09-02 23:52:08,1020010
2025-09-02 23:52:08,1019890
2025-09-02 23:52:08,1019829
2025-09-02 23:52:08,1019750
2025-09-02 23:52:08,1019588
2025-09-02 23:52:08,1019588
2025-09-02 23:52:08,1019479
2025-09-02 23:52:08,1019450
2025-09-02 23:52:08,1019559
2025-09-02 23:52:08,1019480
2025-09-02 23:52:08,1019466
2025-09-02 23:52:08,1019476
2025-09-02 23:52:08,1019304
2025-09-02 23:52:08,1019189
2025-09-02 23:52:08,1019121
2025-09-02 23:52:08,1019056
2025-09-02 23:52:08,1019050
2025-09-02 23:52:08,1018880
2025-09-02 23:52:08,1018846
2025-09-02 23:52:08,1018802
2025-09-02 23:52:08,1018846
2025-09-02 23:52:08,1018884
2025-09-02 23:52:08,1019017
2025-09-02 23:52:08,1019014
2025-09-02 23:52:08,1018973
2025-09-02 23:52:08,1018994
2025-09-02 23:52:08,1019027
2025-09-02 23:52:08,1019007
2025-09-02 23:52:08,1018997
2025-09-02 23:52:08,1019035
2025-09-02 23:52:08,1019035
2025-09-02 23:52:08,1019064
2025-09-02 23:52:08,1019057
2025-09-02 23:52:08,1019143
2025-09-02 23:52:08,1019127
2025-09-02 23:52:08,1019107
2025-09-02 23:52:08,1019094
2025-09-02 23:52:08,1019046
2025-09-02 23:52:08,1019042
2025-09-02 23:52:08,1019069
2025-09-02 23:52:08,1019127
2025-09-02 23:52:08,1019138
2025-09-02 23:52:08,1019171
2025-09-02 23:52:08,1019094
2025-09-02 23:52:08,1019080
2025-09-02 23:52:08,1019125
2025-09-02 23:52:08,1019199
2025-09-02 23:52:08,1019232
2025-09-02 23:52:08,1019349
2025-09-02 23:52:08,1019300
2025-09-02 23:52:08,1019228
2025-09-02 23:52:09,1019022
2025-09-02 23:52:09,1018947
2025-09-02 23:52:09,1018770
2025-09-02 23:52:09,1018738
2025-09-02 23:52:09,1018653
2025-09-02 23:52:09,1018784
2025-09-02 23:52:09,1018922
2025-09-02 23:52:09,1018980
2025-09-02 23:52:09,1019072
2025-09-02 23:52:09,1019252
2025-09-02 23:52:09,1019230
2025-09-02 23:52:09,1019166
2025-09-02 23:52:09,1019191
2025-09-02 23:52:09,1019164
2025-09-02 23:52:09,1019142
2025-09-02 23:52:09,1019132
2025-09-02 23:52:09,1019079
2025-09-02 23:52:09,1019066
2025-09-02 23:52:09,1019080
2025-09-02 23:52:09,1019062
2025-09-02 23:52:09,1019107
2025-09-02 23:52:09,1019056
2025-09-02 23:52:09,1019034
2025-09-02 23:52:09,1018983
2025-09-02 23:52:09,1018927
2025-09-02 23:52:09,1018945
2025-09-02 23:52:09,1018920
2025-09-02 23:52:09,1018815
2025-09-02 23:52:09,1018893
2025-09-02 23:52:09,1018902
2025-09-02 23:52:09,1018864
2025-09-02 23:52:09,1018929
2025-09-02 23:52:09,1018934
2025-09-02 23:52:09,1018832
2025-09-02 23:52:09,1019007
2025-09-02 23:52:09,1019016
2025-09-02 23:52:09,1019031
2025-09-02 23:52:09,1019113
2025-09-02 23:52:09,1019154
2025-09-02 23:52:09,1019055
2025-09-02 23:52:09,1019074
2025-09-02 23:52:09,1019162
2025-09-02 23:52:09,1019079
2025-09-02 23:52:09,1019117
2025-09-02 23:52:09,1019095
2025-09-02 23:52:09,1019114
2025-09-02 23:52:09,1019130
2025-09-02 23:52:09,1019149
2025-09-02 23:52:09,1019058
2025-09-02 23:52:09,1019046
2025-09-02 23:52:09,1019039
2025-09-02 23:52:09,1018955
2025-09-02 23:52:09,1019023
2025-09-02 23:52:09,1019105
2025-09-02 23:52:09,1019037
2025-09-02 23:52:09,1019073
2025-09-02 23:52:09,1019124
2025-09-02 23:52:09,1019148
2025-09-02 23:52:09,1019266
2025-09-02 23:52:09,1019423
2025-09-02 23:52:09,1019421
2025-09-02 23:52:09,1019463
2025-09-02 23:52:09,1019350
2025-09-02 23:52:09,1019020
2025-09-02 23:52:09,1018805
2025-09-02 23:52:09,1018720
2025-09-02 23:52:09,1018570
2025-09-02 23:52:09,1018651
2025-09-02 23:52:09,1018733
2025-09-02 23:52:09,1018903
2025-09-02 23:52:09,1018943
2025-09-02 23:52:09,1018980
2025-09-02 23:52:09,1018997
2025-09-02 23:52:09,1018963
2025-09-02 23:52:09,1018948
2025-09-02 23:52:09,1018880
2025-09-02 23:52:09,1018816
2025-09-02 23:52:09,1018693
2025-09-02 23:52:09,1018657
2025-09-02 23:52:09,1018595
2025-09-02 23:52:09,1018773
2025-09-02 23:52:09,1018673
2025-09-02 23:52:09,1018757
2025-09-02 23:52:09,1018765
2025-09-02 23:52:09,1018692
2025-09-02 23:52:09,1018677
2025-09-02 23:52:09,1018657
2025-09-02 23:52:09,1018722
2025-09-02 23:52:09,1018555
2025-09-02 23:52:09,1018674
2025-09-02 23:52:09,1018716
2025-09-02 23:52:09,1018669
2025-09-02 23:52:09,1018648
2025-09-02 23:52:09,1018663
2025-09-02 23:52:09,1018864
2025-09-02 23:52:09,1018940
2025-09-02 23:52:09,1018945
2025-09-02 23:52:09,1018959
2025-09-02 23:52:09,1019177
2025-09-02 23:52:09,1019155
2025-09-02 23:52:10,1019201
2025-09-02 23:52:10,1019197
2025-09-02 23:52:10,1019311
2025-09-02 23:52:10,1019320
2025-09-02 23:52:10,1019310
2025-09-02 23:52:10,1019302
2025-09-02 23:52:10,1019323
2025-09-02 23:52:10,1019359
2025-09-02 23:52:10,1019275
2025-09-02 23:52:10,1019307
2025-09-02 23:52:10,1019237
2025-09-02 23:52:10,1019203
2025-09-02 23:52:10,1019245
2025-09-02 23:52:10,1019156
2025-09-02 23:52:10,1019042
2025-09-02 23:52:10,1019071
2025-09-02 23:52:10,1019126
2025-09-02 23:52:10,1019210
2025-09-02 23:52:10,1019258
2025-09-02 23:52:10,1019182
2025-09-02 23:52:10,1019248
2025-09-02 23:52:10,1019249
2025-09-02 23:52:10,1019367
2025-09-02 23:52:10,1019500
2025-09-02 23:52:10,1019544
2025-09-02 23:52:10,1019602
2025-09-02 23:52:10,1019482
2025-09-02 23:52:10,1019381
2025-09-02 23:52:10,1019286
2025-09-02 23:52:10,1019191
2025-09-02 23:52:10,1019192
2025-09-02 23:52:10,1019203
2025-09-02 23:52:10,1019245
2025-09-02 23:52:10,1019425
2025-09-02 23:52:10,1019606
2025-09-02 23:52:10,1019675
2025-09-02 23:52:10,1019771
2025-09-02 23:52:10,1019763
2025-09-02 23:52:10,1019830
2025-09-02 23:52:10,1019786
2025-09-02 23:52:10,1019766
2025-09-02 23:52:10,1019777
2025-09-02 23:52:10,1019732
2025-09-02 23:52:10,1019720
2025-09-02 23:52:10,1019716
2025-09-02 23:52:10,1019828
2025-09-02 23:52:10,1019828
2025-09-02 23:52:10,1019838
2025-09-02 23:52:10,1019811
2025-09-02 23:52:10,1019813
2025-09-02 23:52:10,1019816
2025-09-02 23:52:10,1019679
2025-09-02 23:52:10,1019694
2025-09-02 23:52:10,1019639
2025-09-02 23:52:10,1019743
2025-09-02 23:52:10,1019805
2025-09-02 23:52:10,1019847
2025-09-02 23:52:10,1019746
2025-09-02 23:52:10,1019837
2025-09-02 23:52:10,1019829
2025-09-02 23:52:10,1019780
2025-09-02 23:52:10,1019809
2025-09-02 23:52:10,1019690
2025-09-02 23:52:10,1019639
2025-09-02 23:52:10,1019589
2025-09-02 23:52:10,1019507
2025-09-02 23:52:10,1019478
2025-09-02 23:52:10,1019469
2025-09-02 23:52:10,1019435
2025-09-02 23:52:10,1019426
2025-09-02 23:52:10,1019425
2025-09-02 23:52:10,1019520
2025-09-02 23:52:10,1019588
2025-09-02 23:52:10,1019579
2025-09-02 23:52:10,1019583
2025-09-02 23:52:10,1019521
2025-09-02 23:52:10,1019559
2025-09-02 23:52:10,1019428
2025-09-02 23:52:10,1019523
2025-09-02 23:52:10,1019462
2025-09-02 23:52:10,1019607
2025-09-02 23:52:10,1019552
2025-09-02 23:52:10,1019511
2025-09-02 23:52:10,1019570
2025-09-02 23:52:10,1019626
2025-09-02 23:52:10,1019770
2025-09-02 23:52:10,1019824
2025-09-02 23:52:10,1019868
2025-09-02 23:52:10,1019874
2025-09-02 23:52:10,1019728
2025-09-02 23:52:10,1019513
2025-09-02 23:52:10,1019391
2025-09-02 23:52:10,1019286
2025-09-02 23:52:10,1019369
2025-09-02 23:52:10,1019350
2025-09-02 23:52:10,1019347
2025-09-02 23:52:10,1019465
2025-09-02 23:52:10,1019488
2025-09-02 23:52:10,1019475
2025-09-02 23:52:10,1019395
2025-09-02 23:52:11,1019343
2025-09-02 23:52:11,1019319
2025-09-02 23:52:11,1019286
2025-09-02 23:52:11,1019233
2025-09-02 23:52:11,1019071
2025-09-02 23:52:11,1018984
2025-09-02 23:52:11,1019007
2025-09-02 23:52:11,1019009
2025-09-02 23:52:11,1018943
2025-09-02 23:52:11,1019002
2025-09-02 23:52:11,1018822
2025-09-02 23:52:11,1018730
2025-09-02 23:52:11,1018710
2025-09-02 23:52:11,1018757
2025-09-02 23:52:11,1018684
2025-09-02 23:52:11,1018530
2025-09-02 23:52:11,1018472
2025-09-02 23:52:11,1018482
2025-09-02 23:52:11,1018384
2025-09-02 23:52:11,1018493
2025-09-02 23:52:11,1018588
2025-09-02 23:52:11,1018656
2025-09-02 23:52:11,1018650
2025-09-02 23:52:11,1018774
2025-09-02 23:52:11,1018771
2025-09-02 23:52:11,1018767
2025-09-02 23:52:11,1018909
2025-09-02 23:52:11,1018804
2025-09-02 23:52:11,1018780
2025-09-02 23:52:11,1018724
2025-09-02 23:52:11,1018629
2025-09-02 23:52:11,1018612
2025-09-02 23:52:11,1018531
2025-09-02 23:52:11,1018456
2025-09-02 23:52:11,1018539
2025-09-02 23:52:11,1018438
2025-09-02 23:52:11,1018434
2025-09-02 23:52:11,1018426
2025-09-02 23:52:11,1018374
2025-09-02 23:52:11,1018269
2025-09-02 23:52:11,1018281
2025-09-02 23:52:11,1018298
2025-09-02 23:52:11,1018268
2025-09-02 23:52:11,1018252
2025-09-02 23:52:11,1018150
2025-09-02 23:52:11,1018080
2025-09-02 23:52:11,1018217
2025-09-02 23:52:11,1018297
2025-09-02 23:52:11,1018353
2025-09-02 23:52:11,1018371
2025-09-02 23:52:11,1018320
2025-09-02 23:52:11,1018181
2025-09-02 23:52:11,1017959
2025-09-02 23:52:11,1017822
2025-09-02 23:52:11,1017769
2025-09-02 23:52:11,1017849
2025-09-02 23:52:11,1017982
2025-09-02 23:52:11,1018337
2025-09-02 23:52:11,1018512
2025-09-02 23:52:11,1018624
2025-09-02 23:52:11,1018617
2025-09-02 23:52:11,1018690
2025-09-02 23:52:11,1018664
2025-09-02 23:52:11,1018707
2025-09-02 23:52:11,1018663
2025-09-02 23:52:11,1018611
2025-09-02 23:52:11,1018553
2025-09-02 23:52:11,1018507
2025-09-02 23:52:11,1018500
2025-09-02 23:52:11,1018437
2025-09-02 23:52:11,1018554
2025-09-02 23:52:11,1018490
2025-09-02 23:52:11,1018565
2025-09-02 23:52:11,1018524
2025-09-02 23:52:11,1018565
2025-09-02 23:52:11,1018488
2025-09-02 23:52:11,1018378
2025-09-02 23:52:11,1018453
2025-09-02 23:52:11,1018336
2025-09-02 23:52:11,1018422
2025-09-02 23:52:11,1018427
2025-09-02 23:52:11,1018488
2025-09-02 23:52:11,1018536
2025-09-02 23:52:11,1018505
2025-09-02 23:52:11,1018570
2025-09-02 23:52:11,1018609
2025-09-02 23:52:11,1018689
2025-09-02 23:52:11,1018846
2025-09-02 23:52:11,1018904
2025-09-02 23:52:11,1018892
2025-09-02 23:52:11,1019041
2025-09-02 23:52:11,1019144
2025-09-02 23:52:11,1019228
2025-09-02 23:52:11,1019289
2025-09-02 23:52:11,1019385
2025-09-02 23:52:11,1019486
2025-09-02 23:52:11,1019561
2025-09-02 23:52:11,1019551
2025-09-02 23:52:11,1019570
2025-09-02 23:52:11,1019579
2025-09-02 23:52:12,1019580
2025-09-02 23:52:12,1019611
2025-09-02 23:52:12,1019713
2025-09-02 23:52:12,1019706
2025-09-02 23:52:12,1019688
2025-09-02 23:52:12,1019790
2025-09-02 23:52:12,1019792
2025-09-02 23:52:12,1019748
2025-09-02 23:52:12,1019853
2025-09-02 23:52:12,1019935
2025-09-02 23:52:12,1020025
2025-09-02 23:52:12,1020159
2025-09-02 23:52:12,1020198
2025-09-02 23:52:12,1020157
2025-09-02 23:52:12,1019969
2025-09-02 23:52:12,1019821
2025-09-02 23:52:12,1019711
2025-09-02 23:52:12,1019659
2025-09-02 23:52:12,1019634
2025-09-02 23:52:12,1019737
2025-09-02 23:52:12,1019839
2025-09-02 23:52:12,1019955
2025-09-02 23:52:12,1020081
2025-09-02 23:52:12,1020190
2025-09-02 23:52:12,1020254
2025-09-02 23:52:12,1020228
2025-09-02 23:52:12,1020281
2025-09-02 23:52:12,1020260
2025-09-02 23:52:12,1020217
2025-09-02 23:52:12,1020195
2025-09-02 23:52:12,1020161
2025-09-02 23:52:12,1020154
2025-09-02 23:52:12,1020120
2025-09-02 23:52:12,1020107
2025-09-02 23:52:12,1020109
2025-09-02 23:52:12,1020160
2025-09-02 23:52:12,1020096
2025-09-02 23:52:12,1020131
2025-09-02 23:52:12,1020090
2025-09-02 23:52:12,1020099
2025-09-02 23:52:12,1020026
2025-09-02 23:52:12,1020083
2025-09-02 23:52:12,1020078
2025-09-02 23:52:12,1020008
2025-09-02 23:52:12,1020007
2025-09-02 23:52:12,1020127
2025-09-02 23:52:12,1020118
2025-09-02 23:52:12,1020057
2025-09-02 23:52:12,1020050
2025-09-02 23:52:12,1020142
2025-09-02 23:52:12,1020102
2025-09-02 23:52:12,1020103
2025-09-02 23:52:12,1020099
2025-09-02 23:52:12,1020081
2025-09-02 23:52:12,1020048
2025-09-02 23:52:12,1020020
2025-09-02 23:52:12,1020050
2025-09-02 23:52:12,1020074
2025-09-02 23:52:12,1020073
2025-09-02 23:52:12,1020223
2025-09-02 23:52:12,1020102
2025-09-02 23:52:12,1020120
2025-09-02 23:52:12,1020068
2025-09-02 23:52:12,1020047
2025-09-02 23:52:12,1020028
2025-09-02 23:52:12,1019994
2025-09-02 23:52:12,1019992
2025-09-02 23:52:12,1019923
2025-09-02 23:52:12,1020049
2025-09-02 23:52:12,1019951
2025-09-02 23:52:12,1020003
2025-09-02 23:52:12,1019964
2025-09-02 23:52:12,1020012
2025-09-02 23:52:12,1020125
2025-09-02 23:52:12,1020265
2025-09-02 23:52:12,1020078
2025-09-02 23:52:12,1020103
2025-09-02 23:52:12,1019976
2025-09-02 23:52:12,1019866
2025-09-02 23:52:12,1019654
2025-09-02 23:52:12,1019636
2025-09-02 23:52:12,1019686
2025-09-02 23:52:12,1019657
2025-09-02 23:52:12,1019800
2025-09-02 23:52:12,1019893
2025-09-02 23:52:12,1019981
2025-09-02 23:52:12,1020086
2025-09-02 23:52:12,1020046
2025-09-02 23:52:12,1020083
2025-09-02 23:52:12,1019971
2025-09-02 23:52:12,1020017
2025-09-02 23:52:12,1019782
2025-09-02 23:52:12,1019828
2025-09-02 23:52:12,1019671
2025-09-02 23:52:12,1019744
2025-09-02 23:52:12,1019792
2025-09-02 23:52:12,1019729
2025-09-02 23:52:12,1019645
2025-09-02 23:52:12,1019587
2025-09-02 23:52:13,1019579
2025-09-02 23:52:13,1019420
2025-09-02 23:52:13,1019394
2025-09-02 23:52:13,1019349
2025-09-02 23:52:13,1019245
2025-09-02 23:52:13,1019173
2025-09-02 23:52:13,1019169
2025-09-02 23:52:13,1019200
2025-09-02 23:52:13,1019122
2025-09-02 23:52:13,1019119
2025-09-02 23:52:13,1019173
2025-09-02 23:52:13,1019131
2025-09-02 23:52:13,1019157
2025-09-02 23:52:13,1019242
2025-09-02 23:52:13,1019210
2025-09-02 23:52:13,1019166
2025-09-02 23:52:13,1019167
2025-09-02 23:52:13,1019187
2025-09-02 23:52:13,1019159
2025-09-02 23:52:13,1019058
2025-09-02 23:52:13,1019049
2025-09-02 23:52:13,1018990
2025-09-02 23:52:13,1019063
2025-09-02 23:52:13,1019052
2025-09-02 23:52:13,1019091
2025-09-02 23:52:13,1018964
2025-09-02 23:52:13,1018947
2025-09-02 23:52:13,1018842
2025-09-02 23:52:13,1018773
2025-09-02 23:52:13,1018650
2025-09-02 23:52:13,1018696
2025-09-02 23:52:13,1018816
2025-09-02 23:52:13,1018749
2025-09-02 23:52:13,1018762
2025-09-02 23:52:13,1018715
2025-09-02 23:52:13,1018785
2025-09-02 23:52:13,1018880
2025-09-02 23:52:13,1018958
2025-09-02 23:52:13,1019178
2025-09-02 23:52:13,1019251
2025-09-02 23:52:13,1019196
2025-09-02 23:52:13,1019188
2025-09-02 23:52:13,1019015
2025-09-02 23:52:13,1019020
2025-09-02 23:52:13,1018966
2025-09-02 23:52:13,1018934
2025-09-02 23:52:13,1018956
2025-09-02 23:52:13,1019143
2025-09-02 23:52:13,1019278
2025-09-02 23:52:13,1019308
2025-09-02 23:52:13,1019419
2025-09-02 23:52:13,1019515
2025-09-02 23:52:13,1019393
2025-09-02 23:52:13,1019403
2025-09-02 23:52:13,1019339
2025-09-02 23:52:13,1019163
2025-09-02 23:52:13,1019132
2025-09-02 23:52:13,1019016
2025-09-02 23:52:13,1018937
2025-09-02 23:52:13,1018844
2025-09-02 23:52:13,1018725
2025-09-02 23:52:13,1018671
2025-09-02 23:52:13,1018593
2025-09-02 23:52:13,1018501
2025-09-02 23:52:13,1018356
2025-09-02 23:52:13,1018278
2025-09-02 23:52:13,1018147
2025-09-02 23:52:13,1018083
2025-09-02 23:52:13,1017993
2025-09-02 23:52:13,1018051
2025-09-02 23:52:13,1018094
2025-09-02 23:52:13,1018019
2025-09-02 23:52:13,1018147
2025-09-02 23:52:13,1018226
2025-09-02 23:52:13,1018198
2025-09-02 23:52:13,1018148
2025-09-02 23:52:13,1018100
2025-09-02 23:52:13,1018246
2025-09-02 23:52:13,1018263
2025-09-02 23:52:13,1018218
2025-09-02 23:52:13,1018156
2025-09-02 23:52:13,1018209
2025-09-02 23:52:13,1018163
2025-09-02 23:52:13,1018209
2025-09-02 23:52:13,1018308
2025-09-02 23:52:13,1018300
2025-09-02 23:52:13,1018349
2025-09-02 23:52:13,1018416
2025-09-02 23:52:13,1018451
2025-09-02 23:52:13,1018456
2025-09-02 23:52:13,1018593
2025-09-02 23:52:13,1018694
2025-09-02 23:52:13,1018834
2025-09-02 23:52:13,1018853
2025-09-02 23:52:13,1018928
2025-09-02 23:52:13,1018933
2025-09-02 23:52:13,1018921
2025-09-02 23:52:13,1018919
2025-09-02 23:52:13,1018908
2025-09-02 23:52:13,1018985
2025-09-02 23:52:14,1019042
2025-09-02 23:52:14,1019114
2025-09-02 23:52:14,1019005
2025-09-02 23:52:14,1018928
2025-09-02 23:52:14,1018591
2025-09-02 23:52:14,1018437
2025-09-02 23:52:14,1018315
2025-09-02 23:52:14,1018302
2025-09-02 23:52:14,1018359
2025-09-02 23:52:14,1018420
2025-09-02 23:52:14,1018545
2025-09-02 23:52:14,1018494
2025-09-02 23:52:14,1018506
2025-09-02 23:52:14,1018547
2025-09-02 23:52:14,1018524
2025-09-02 23:52:14,1018434
2025-09-02 23:52:14,1018431
2025-09-02 23:52:14,1018295
2025-09-02 23:52:14,1018275
2025-09-02 23:52:14,1018343
2025-09-02 23:52:14,1018196
2025-09-02 23:52:14,1018258
2025-09-02 23:52:14,1018224
2025-09-02 23:52:14,1018201
2025-09-02 23:52:14,1018176
2025-09-02 23:52:14,1018106
2025-09-02 23:52:14,1018033
2025-09-02 23:52:14,1018059
2025-09-02 23:52:14,1018004
2025-09-02 23:52:14,1017955
2025-09-02 23:52:14,1017940
2025-09-02 23:52:14,1018015
2025-09-02 23:52:14,1017956
2025-09-02 23:52:14,1018102
2025-09-02 23:52:14,1018211
2025-09-02 23:52:14,1018183
2025-09-02 23:52:14,1018275
2025-09-02 23:52:14,1018283
2025-09-02 23:52:14,1018373
2025-09-02 23:52:14,1018371
2025-09-02 23:52:14,1018482
2025-09-02 23:52:14,1018492
2025-09-02 23:52:14,1018413
2025-09-02 23:52:14,1018535
2025-09-02 23:52:14,1018543
2025-09-02 23:52:14,1018538
2025-09-02 23:52:14,1018635
2025-09-02 23:52:14,1018641
2025-09-02 23:52:14,1018749
2025-09-02 23:52:14,1018697
2025-09-02 23:52:14,1018761
2025-09-02 23:52:14,1018707
2025-09-02 23:52:14,1018593
2025-09-02 23:52:14,1018546
2025-09-02 23:52:14,1018504
2025-09-02 23:52:14,1018510
2025-09-02 23:52:14,1018490
2025-09-02 23:52:14,1018452
2025-09-02 23:52:14,1018409
2025-09-02 23:52:14,1018360
2025-09-02 23:52:14,1018436
2025-09-02 23:52:14,1018520
2025-09-02 23:52:14,1018561
2025-09-02 23:52:14,1018598
2025-09-02 23:52:14,1018638
2025-09-02 23:52:14,1018490
2025-09-02 23:52:14,1018351
2025-09-02 23:52:14,1018200
2025-09-02 23:52:14,1018046
2025-09-02 23:52:14,1017956
2025-09-02 23:52:14,1018003
2025-09-02 23:52:14,1018050
2025-09-02 23:52:14,1018271
2025-09-02 23:52:14,1018459
2025-09-02 23:52:14,1018534
2025-09-02 23:52:14,1018506
2025-09-02 23:52:14,1018581
2025-09-02 23:52:14,1018566
2025-09-02 23:52:14,1018497
2025-09-02 23:52:14,1018528
2025-09-02 23:52:14,1018494
2025-09-02 23:52:14,1018537
2025-09-02 23:52:14,1018478
2025-09-02 23:52:14,1018499
2025-09-02 23:52:14,1018433
2025-09-02 23:52:14,1018472
2025-09-02 23:52:14,1018466
2025-09-02 23:52:14,1018491
2025-09-02 23:52:14,1018434
2025-09-02 23:52:14,1018455
2025-09-02 23:52:14,1018411
2025-09-02 23:52:14,1018430
2025-09-02 23:52:14,1018389
2025-09-02 23:52:14,1018534
2025-09-02 23:52:14,1018559
2025-09-02 23:52:14,1018599
2025-09-02 23:52:14,1018660
2025-09-02 23:52:14,1018772
