timestamp,value
2025-09-11 13:59:13,1582548
2025-09-11 13:59:13,1582687
2025-09-11 13:59:13,1582782
2025-09-11 13:59:13,1582897
2025-09-11 13:59:13,1582971
2025-09-11 13:59:13,1583032
2025-09-11 13:59:13,1583138
2025-09-11 13:59:13,1583175
2025-09-11 13:59:13,1583263
2025-09-11 13:59:13,1583214
2025-09-11 13:59:13,1583395
2025-09-11 13:59:13,1583484
2025-09-11 13:59:13,1583549
2025-09-11 13:59:13,1583560
2025-09-11 13:59:13,1583660
2025-09-11 13:59:13,1583793
2025-09-11 13:59:13,1583815
2025-09-11 13:59:13,1583879
2025-09-11 13:59:13,1584075
2025-09-11 13:59:13,1584198
2025-09-11 13:59:13,1584288
2025-09-11 13:59:13,1584305
2025-09-11 13:59:13,1584469
2025-09-11 13:59:13,1584564
2025-09-11 13:59:13,1584520
2025-09-11 13:59:13,1584639
2025-09-11 13:59:13,1584662
2025-09-11 13:59:13,1584769
2025-09-11 13:59:13,1584770
2025-09-11 13:59:13,1584904
2025-09-11 13:59:13,1584963
2025-09-11 13:59:13,1585082
2025-09-11 13:59:13,1585081
2025-09-11 13:59:13,1585223
2025-09-11 13:59:13,1585250
2025-09-11 13:59:13,1585371
2025-09-11 13:59:13,1585435
2025-09-11 13:59:13,1585283
2025-09-11 13:59:13,1585265
2025-09-11 13:59:13,1584947
2025-09-11 13:59:13,1584667
2025-09-11 13:59:13,1584402
2025-09-11 13:59:13,1584096
2025-09-11 13:59:13,1583668
2025-09-11 13:59:14,1583359
2025-09-11 13:59:14,1583093
2025-09-11 13:59:14,1582734
2025-09-11 13:59:14,1582553
2025-09-11 13:59:14,1582313
2025-09-11 13:59:14,1582153
2025-09-11 13:59:14,1582066
2025-09-11 13:59:14,1581925
2025-09-11 13:59:14,1581868
2025-09-11 13:59:14,1581814
2025-09-11 13:59:14,1581847
2025-09-11 13:59:14,1581842
2025-09-11 13:59:14,1581693
2025-09-11 13:59:14,1581781
2025-09-11 13:59:14,1581829
2025-09-11 13:59:14,1581726
2025-09-11 13:59:14,1581725
2025-09-11 13:59:14,1581811
2025-09-11 13:59:14,1581788
2025-09-11 13:59:14,1581842
2025-09-11 13:59:14,1581945
2025-09-11 13:59:14,1582101
2025-09-11 13:59:14,1582207
2025-09-11 13:59:14,1582143
2025-09-11 13:59:14,1582181
2025-09-11 13:59:14,1582225
2025-09-11 13:59:14,1582207
2025-09-11 13:59:14,1582372
2025-09-11 13:59:14,1582381
2025-09-11 13:59:14,1582419
2025-09-11 13:59:14,1582386
2025-09-11 13:59:14,1582476
2025-09-11 13:59:14,1582514
2025-09-11 13:59:14,1582550
2025-09-11 13:59:14,1582483
2025-09-11 13:59:14,1582683
2025-09-11 13:59:14,1582656
2025-09-11 13:59:14,1582790
2025-09-11 13:59:14,1582969
2025-09-11 13:59:14,1583101
2025-09-11 13:59:14,1583251
2025-09-11 13:59:14,1583401
2025-09-11 13:59:14,1583617
2025-09-11 13:59:14,1583797
2025-09-11 13:59:14,1583915
2025-09-11 13:59:14,1583997
2025-09-11 13:59:14,1584203
2025-09-11 13:59:14,1584308
2025-09-11 13:59:14,1584369
2025-09-11 13:59:14,1584595
2025-09-11 13:59:14,1584718
2025-09-11 13:59:14,1584791
2025-09-11 13:59:14,1584828
2025-09-11 13:59:14,1584815
2025-09-11 13:59:14,1584868
2025-09-11 13:59:14,1584998
2025-09-11 13:59:14,1585012
2025-09-11 13:59:14,1584983
2025-09-11 13:59:14,1584951
2025-09-11 13:59:14,1584972
2025-09-11 13:59:14,1585093
2025-09-11 13:59:14,1585069
2025-09-11 13:59:14,1585276
2025-09-11 13:59:14,1585323
2025-09-11 13:59:14,1585244
2025-09-11 13:59:14,1585200
2025-09-11 13:59:14,1584909
2025-09-11 13:59:14,1584627
2025-09-11 13:59:14,1584216
2025-09-11 13:59:14,1583837
2025-09-11 13:59:14,1583425
2025-09-11 13:59:14,1583072
2025-09-11 13:59:14,1582838
2025-09-11 13:59:14,1582590
2025-09-11 13:59:14,1582212
2025-09-11 13:59:14,1582117
2025-09-11 13:59:14,1581861
2025-09-11 13:59:14,1581702
2025-09-11 13:59:14,1581581
2025-09-11 13:59:14,1581454
2025-09-11 13:59:14,1581324
2025-09-11 13:59:14,1581038
2025-09-11 13:59:14,1581034
2025-09-11 13:59:14,1580656
2025-09-11 13:59:14,1580588
2025-09-11 13:59:14,1580616
2025-09-11 13:59:14,1580645
2025-09-11 13:59:14,1580723
2025-09-11 13:59:14,1580892
2025-09-11 13:59:14,1580989
2025-09-11 13:59:14,1581179
2025-09-11 13:59:14,1581267
2025-09-11 13:59:14,1581394
2025-09-11 13:59:14,1581584
2025-09-11 13:59:14,1581811
2025-09-11 13:59:14,1582034
2025-09-11 13:59:14,1582419
2025-09-11 13:59:14,1582752
2025-09-11 13:59:14,1583123
2025-09-11 13:59:14,1583266
2025-09-11 13:59:15,1583405
2025-09-11 13:59:15,1583689
2025-09-11 13:59:15,1583984
2025-09-11 13:59:15,1584062
2025-09-11 13:59:15,1584342
2025-09-11 13:59:15,1584588
2025-09-11 13:59:15,1584726
2025-09-11 13:59:15,1584905
2025-09-11 13:59:15,1585139
2025-09-11 13:59:15,1585542
2025-09-11 13:59:15,1585700
2025-09-11 13:59:15,1586116
2025-09-11 13:59:15,1586425
2025-09-11 13:59:15,1586632
2025-09-11 13:59:15,1586783
2025-09-11 13:59:15,1586995
2025-09-11 13:59:15,1586986
2025-09-11 13:59:15,1587074
2025-09-11 13:59:15,1587242
2025-09-11 13:59:15,1587588
2025-09-11 13:59:15,1587934
2025-09-11 13:59:15,1588215
2025-09-11 13:59:15,1588299
2025-09-11 13:59:15,1588034
2025-09-11 13:59:15,1587696
2025-09-11 13:59:15,1587362
2025-09-11 13:59:15,1587152
2025-09-11 13:59:15,1586756
2025-09-11 13:59:15,1586157
2025-09-11 13:59:15,1585759
2025-09-11 13:59:15,1585386
2025-09-11 13:59:15,1584962
2025-09-11 13:59:15,1584150
2025-09-11 13:59:15,1583060
2025-09-11 13:59:15,1581789
2025-09-11 13:59:15,1580608
2025-09-11 13:59:15,1579551
2025-09-11 13:59:15,1578613
2025-09-11 13:59:15,1577698
2025-09-11 13:59:15,1576691
2025-09-11 13:59:15,1575732
2025-09-11 13:59:15,1574720
2025-09-11 13:59:15,1573702
2025-09-11 13:59:15,1572923
2025-09-11 13:59:15,1572602
2025-09-11 13:59:15,1572743
2025-09-11 13:59:15,1573147
2025-09-11 13:59:15,1573592
2025-09-11 13:59:15,1573767
2025-09-11 13:59:15,1573894
2025-09-11 13:59:15,1573789
2025-09-11 13:59:15,1573395
2025-09-11 13:59:15,1572911
2025-09-11 13:59:15,1572939
2025-09-11 13:59:15,1573440
2025-09-11 13:59:15,1574085
2025-09-11 13:59:15,1574469
2025-09-11 13:59:15,1574725
2025-09-11 13:59:15,1575136
2025-09-11 13:59:15,1575752
2025-09-11 13:59:15,1575774
2025-09-11 13:59:15,1575550
2025-09-11 13:59:15,1575575
2025-09-11 13:59:15,1575983
2025-09-11 13:59:15,1576365
2025-09-11 13:59:15,1576853
2025-09-11 13:59:15,1577275
2025-09-11 13:59:15,1578071
2025-09-11 13:59:15,1578048
2025-09-11 13:59:15,1577328
2025-09-11 13:59:15,1576229
2025-09-11 13:59:15,1575588
2025-09-11 13:59:15,1576081
2025-09-11 13:59:15,1574125
2025-09-11 13:59:15,1553076
2025-09-11 13:59:15,1548467
2025-09-11 13:59:15,1548868
2025-09-11 13:59:15,1552048
2025-09-11 13:59:15,1553612
2025-09-11 13:59:15,1552927
2025-09-11 13:59:15,1551479
2025-09-11 13:59:15,1550271
2025-09-11 13:59:15,1549235
2025-09-11 13:59:15,1548526
2025-09-11 13:59:15,1548159
2025-09-11 13:59:15,1549440
2025-09-11 13:59:15,1551001
2025-09-11 13:59:15,1552006
2025-09-11 13:59:15,1552460
2025-09-11 13:59:15,1552316
2025-09-11 13:59:15,1552122
2025-09-11 13:59:15,1552174
2025-09-11 13:59:15,1552699
2025-09-11 13:59:15,1553406
2025-09-11 13:59:15,1554013
2025-09-11 13:59:15,1554552
2025-09-11 13:59:15,1554872
2025-09-11 13:59:15,1555290
2025-09-11 13:59:15,1555554
2025-09-11 13:59:15,1555563
2025-09-11 13:59:16,1555338
2025-09-11 13:59:16,1554860
2025-09-11 13:59:16,1554021
2025-09-11 13:59:16,1553075
2025-09-11 13:59:16,1551938
2025-09-11 13:59:16,1550656
2025-09-11 13:59:16,1548888
2025-09-11 13:59:16,1547195
2025-09-11 13:59:16,1545672
2025-09-11 13:59:16,1544214
2025-09-11 13:59:16,1543478
2025-09-11 13:59:16,1542351
2025-09-11 13:59:16,1540311
2025-09-11 13:59:16,1539040
2025-09-11 13:59:16,1538869
2025-09-11 13:59:16,1539348
2025-09-11 13:59:16,1539509
2025-09-11 13:59:16,1539885
2025-09-11 13:59:16,1540779
2025-09-11 13:59:16,1542317
2025-09-11 13:59:16,1544557
2025-09-11 13:59:16,1547301
2025-09-11 13:59:16,1549794
2025-09-11 13:59:16,1552294
2025-09-11 13:59:16,1555331
2025-09-11 13:59:16,1558369
2025-09-11 13:59:16,1560749
2025-09-11 13:59:16,1562551
2025-09-11 13:59:16,1564624
2025-09-11 13:59:16,1566737
2025-09-11 13:59:16,1568619
2025-09-11 13:59:16,1570024
2025-09-11 13:59:16,1571096
2025-09-11 13:59:16,1570917
2025-09-11 13:59:16,1569690
2025-09-11 13:59:16,1569076
2025-09-11 13:59:16,1568668
2025-09-11 13:59:16,1568017
2025-09-11 13:59:16,1566949
2025-09-11 13:59:16,1566015
2025-09-11 13:59:16,1565050
2025-09-11 13:59:16,1564080
2025-09-11 13:59:16,1563013
2025-09-11 13:59:16,1561885
2025-09-11 13:59:16,1560653
2025-09-11 13:59:16,1559779
2025-09-11 13:59:16,1559141
2025-09-11 13:59:16,1558738
2025-09-11 13:59:16,1558724
2025-09-11 13:59:16,1558895
2025-09-11 13:59:16,1559174
2025-09-11 13:59:16,1558432
2025-09-11 13:59:16,1554971
2025-09-11 13:59:16,1553049
2025-09-11 13:59:16,1552100
2025-09-11 13:59:16,1552775
2025-09-11 13:59:16,1552944
2025-09-11 13:59:16,1552182
2025-09-11 13:59:16,1550608
2025-09-11 13:59:16,1548633
2025-09-11 13:59:16,1545989
2025-09-11 13:59:16,1543114
2025-09-11 13:59:16,1540370
2025-09-11 13:59:16,1537724
2025-09-11 13:59:16,1535227
2025-09-11 13:59:16,1533411
2025-09-11 13:59:16,1532624
2025-09-11 13:59:16,1532486
2025-09-11 13:59:16,1533065
2025-09-11 13:59:16,1534149
2025-09-11 13:59:16,1535493
2025-09-11 13:59:16,1537339
2025-09-11 13:59:16,1539552
2025-09-11 13:59:16,1542962
2025-09-11 13:59:16,1547037
2025-09-11 13:59:16,1552202
2025-09-11 13:59:16,1557904
2025-09-11 13:59:16,1563374
2025-09-11 13:59:16,1568777
2025-09-11 13:59:16,1573670
2025-09-11 13:59:16,1578328
2025-09-11 13:59:16,1582154
2025-09-11 13:59:16,1583900
2025-09-11 13:59:16,1583579
2025-09-11 13:59:16,1581456
2025-09-11 13:59:16,1578077
2025-09-11 13:59:16,1574596
2025-09-11 13:59:16,1573271
2025-09-11 13:59:16,1572760
2025-09-11 13:59:16,1572865
2025-09-11 13:59:16,1572915
2025-09-11 13:59:16,1573003
2025-09-11 13:59:16,1572945
2025-09-11 13:59:16,1572122
2025-09-11 13:59:16,1568276
2025-09-11 13:59:16,1562302
2025-09-11 13:59:16,1556126
2025-09-11 13:59:16,1550974
2025-09-11 13:59:16,1546736
2025-09-11 13:59:17,1543666
2025-09-11 13:59:17,1540861
2025-09-11 13:59:17,1537951
2025-09-11 13:59:17,1535642
2025-09-11 13:59:17,1534192
2025-09-11 13:59:17,1533651
2025-09-11 13:59:17,1533493
2025-09-11 13:59:17,1533896
2025-09-11 13:59:17,1534565
2025-09-11 13:59:17,1535051
2025-09-11 13:59:17,1535680
2025-09-11 13:59:17,1536398
2025-09-11 13:59:17,1537156
2025-09-11 13:59:17,1538296
2025-09-11 13:59:17,1539617
2025-09-11 13:59:17,1541077
2025-09-11 13:59:17,1542802
2025-09-11 13:59:17,1544274
2025-09-11 13:59:17,1545505
2025-09-11 13:59:17,1546510
2025-09-11 13:59:17,1547253
2025-09-11 13:59:17,1547865
2025-09-11 13:59:17,1548417
2025-09-11 13:59:17,1548475
2025-09-11 13:59:17,1548330
2025-09-11 13:59:17,1548234
2025-09-11 13:59:17,1548043
2025-09-11 13:59:17,1547757
2025-09-11 13:59:17,1547313
2025-09-11 13:59:17,1546614
2025-09-11 13:59:17,1545858
2025-09-11 13:59:17,1545242
2025-09-11 13:59:17,1544582
2025-09-11 13:59:17,1544211
2025-09-11 13:59:17,1543869
2025-09-11 13:59:17,1543803
2025-09-11 13:59:17,1543989
2025-09-11 13:59:17,1544098
2025-09-11 13:59:17,1544208
2025-09-11 13:59:17,1544222
2025-09-11 13:59:17,1544348
2025-09-11 13:59:17,1544341
2025-09-11 13:59:17,1544180
2025-09-11 13:59:17,1543990
2025-09-11 13:59:17,1543830
2025-09-11 13:59:17,1543566
2025-09-11 13:59:17,1543439
2025-09-11 13:59:17,1543454
2025-09-11 13:59:17,1543260
2025-09-11 13:59:17,1543164
2025-09-11 13:59:17,1543138
2025-09-11 13:59:17,1543129
2025-09-11 13:59:17,1543216
2025-09-11 13:59:17,1543225
2025-09-11 13:59:17,1543250
2025-09-11 13:59:17,1543267
2025-09-11 13:59:17,1543242
2025-09-11 13:59:17,1543246
2025-09-11 13:59:17,1543170
2025-09-11 13:59:17,1543045
2025-09-11 13:59:17,1542834
2025-09-11 13:59:17,1542739
2025-09-11 13:59:17,1542743
2025-09-11 13:59:17,1542874
2025-09-11 13:59:17,1543077
2025-09-11 13:59:17,1543231
2025-09-11 13:59:17,1543188
2025-09-11 13:59:17,1543110
2025-09-11 13:59:17,1543054
2025-09-11 13:59:17,1543161
2025-09-11 13:59:17,1543337
2025-09-11 13:59:17,1543511
2025-09-11 13:59:17,1543742
2025-09-11 13:59:17,1543905
2025-09-11 13:59:17,1543983
2025-09-11 13:59:17,1544226
2025-09-11 13:59:17,1544273
2025-09-11 13:59:17,1544521
2025-09-11 13:59:17,1544851
2025-09-11 13:59:17,1545052
2025-09-11 13:59:17,1545256
2025-09-11 13:59:17,1545377
2025-09-11 13:59:17,1545598
2025-09-11 13:59:17,1545810
2025-09-11 13:59:17,1545980
2025-09-11 13:59:17,1546263
2025-09-11 13:59:17,1546692
2025-09-11 13:59:17,1546951
2025-09-11 13:59:17,1547262
2025-09-11 13:59:17,1547625
2025-09-11 13:59:17,1547857
2025-09-11 13:59:17,1548309
2025-09-11 13:59:17,1548526
2025-09-11 13:59:17,1548834
2025-09-11 13:59:17,1549120
2025-09-11 13:59:17,1549448
2025-09-11 13:59:17,1549679
2025-09-11 13:59:17,1549962
2025-09-11 13:59:17,1550237
2025-09-11 13:59:17,1550556
2025-09-11 13:59:18,1550791
2025-09-11 13:59:18,1551015
2025-09-11 13:59:18,1551094
2025-09-11 13:59:18,1551154
2025-09-11 13:59:18,1551254
2025-09-11 13:59:18,1551111
2025-09-11 13:59:18,1551095
2025-09-11 13:59:18,1551148
2025-09-11 13:59:18,1550669
2025-09-11 13:59:18,1550024
2025-09-11 13:59:18,1549292
2025-09-11 13:59:18,1548748
2025-09-11 13:59:18,1548290
2025-09-11 13:59:18,1548046
2025-09-11 13:59:18,1547636
2025-09-11 13:59:18,1547129
2025-09-11 13:59:18,1546437
2025-09-11 13:59:18,1545561
2025-09-11 13:59:18,1545138
2025-09-11 13:59:18,1544921
2025-09-11 13:59:18,1545106
2025-09-11 13:59:18,1545552
2025-09-11 13:59:18,1546196
2025-09-11 13:59:18,1547216
2025-09-11 13:59:18,1548719
2025-09-11 13:59:18,1550422
2025-09-11 13:59:18,1551712
2025-09-11 13:59:18,1552845
2025-09-11 13:59:18,1554082
2025-09-11 13:59:18,1555078
2025-09-11 13:59:18,1555792
2025-09-11 13:59:18,1555931
2025-09-11 13:59:18,1555838
2025-09-11 13:59:18,1555560
2025-09-11 13:59:18,1555388
2025-09-11 13:59:18,1555180
2025-09-11 13:59:18,1555096
2025-09-11 13:59:18,1555056
2025-09-11 13:59:18,1554719
2025-09-11 13:59:18,1554494
2025-09-11 13:59:18,1554051
2025-09-11 13:59:18,1553776
2025-09-11 13:59:18,1553787
2025-09-11 13:59:18,1554081
2025-09-11 13:59:18,1554794
2025-09-11 13:59:18,1555675
2025-09-11 13:59:18,1556505
2025-09-11 13:59:18,1557335
2025-09-11 13:59:18,1558326
2025-09-11 13:59:18,1559251
2025-09-11 13:59:18,1559946
2025-09-11 13:59:18,1560192
2025-09-11 13:59:18,1560469
2025-09-11 13:59:18,1560691
2025-09-11 13:59:18,1561110
2025-09-11 13:59:18,1561364
2025-09-11 13:59:18,1561600
2025-09-11 13:59:18,1561523
2025-09-11 13:59:18,1561508
2025-09-11 13:59:18,1561607
2025-09-11 13:59:18,1561828
2025-09-11 13:59:18,1562120
2025-09-11 13:59:18,1562466
2025-09-11 13:59:18,1562964
2025-09-11 13:59:18,1563649
2025-09-11 13:59:18,1564384
2025-09-11 13:59:18,1565196
2025-09-11 13:59:18,1566122
2025-09-11 13:59:18,1567083
2025-09-11 13:59:18,1567940
2025-09-11 13:59:18,1568472
2025-09-11 13:59:18,1568729
2025-09-11 13:59:18,1569013
2025-09-11 13:59:18,1569060
2025-09-11 13:59:18,1569016
2025-09-11 13:59:18,1568907
2025-09-11 13:59:18,1568636
2025-09-11 13:59:18,1568406
2025-09-11 13:59:18,1568099
2025-09-11 13:59:18,1567937
2025-09-11 13:59:18,1567796
2025-09-11 13:59:18,1567683
2025-09-11 13:59:18,1567615
2025-09-11 13:59:18,1567616
2025-09-11 13:59:18,1567691
2025-09-11 13:59:18,1567712
2025-09-11 13:59:18,1567877
2025-09-11 13:59:18,1567843
2025-09-11 13:59:18,1567922
2025-09-11 13:59:18,1568076
2025-09-11 13:59:18,1568215
2025-09-11 13:59:18,1568386
2025-09-11 13:59:18,1568555
2025-09-11 13:59:18,1568667
2025-09-11 13:59:18,1568849
2025-09-11 13:59:18,1569137
2025-09-11 13:59:18,1569332
2025-09-11 13:59:18,1569592
2025-09-11 13:59:18,1569738
2025-09-11 13:59:18,1569912
2025-09-11 13:59:18,1570115
2025-09-11 13:59:19,1570324
2025-09-11 13:59:19,1570365
2025-09-11 13:59:19,1570565
2025-09-11 13:59:19,1570660
2025-09-11 13:59:19,1570861
2025-09-11 13:59:19,1570796
2025-09-11 13:59:19,1570961
2025-09-11 13:59:19,1571010
2025-09-11 13:59:19,1571115
2025-09-11 13:59:19,1571180
2025-09-11 13:59:19,1571261
2025-09-11 13:59:19,1571368
2025-09-11 13:59:19,1571487
2025-09-11 13:59:19,1571559
2025-09-11 13:59:19,1571599
2025-09-11 13:59:19,1571773
2025-09-11 13:59:19,1571852
2025-09-11 13:59:19,1572022
2025-09-11 13:59:19,1572177
2025-09-11 13:59:19,1572298
2025-09-11 13:59:19,1572405
2025-09-11 13:59:19,1572589
2025-09-11 13:59:19,1572683
2025-09-11 13:59:19,1572802
2025-09-11 13:59:19,1572923
2025-09-11 13:59:19,1573043
2025-09-11 13:59:19,1573211
2025-09-11 13:59:19,1573280
2025-09-11 13:59:19,1573354
2025-09-11 13:59:19,1573458
2025-09-11 13:59:19,1573620
2025-09-11 13:59:19,1573811
2025-09-11 13:59:19,1573942
2025-09-11 13:59:19,1574092
2025-09-11 13:59:19,1574272
2025-09-11 13:59:19,1574359
2025-09-11 13:59:19,1574480
2025-09-11 13:59:19,1574499
2025-09-11 13:59:19,1574336
2025-09-11 13:59:19,1574086
2025-09-11 13:59:19,1573683
2025-09-11 13:59:19,1573243
2025-09-11 13:59:19,1572829
2025-09-11 13:59:19,1572323
2025-09-11 13:59:19,1571814
2025-09-11 13:59:19,1571577
2025-09-11 13:59:19,1571295
2025-09-11 13:59:19,1571004
2025-09-11 13:59:19,1570800
2025-09-11 13:59:19,1570684
2025-09-11 13:59:19,1570776
2025-09-11 13:59:19,1570714
2025-09-11 13:59:19,1570662
2025-09-11 13:59:19,1570671
2025-09-11 13:59:19,1570775
2025-09-11 13:59:19,1570659
2025-09-11 13:59:19,1570715
2025-09-11 13:59:19,1570797
2025-09-11 13:59:19,1570870
2025-09-11 13:59:19,1570998
2025-09-11 13:59:19,1571092
2025-09-11 13:59:19,1571283
2025-09-11 13:59:19,1571429
2025-09-11 13:59:19,1571558
2025-09-11 13:59:19,1571717
2025-09-11 13:59:19,1571967
2025-09-11 13:59:19,1572008
2025-09-11 13:59:19,1572215
2025-09-11 13:59:19,1572264
2025-09-11 13:59:19,1572363
2025-09-11 13:59:19,1572442
2025-09-11 13:59:19,1572537
2025-09-11 13:59:19,1572525
2025-09-11 13:59:19,1572597
2025-09-11 13:59:19,1572552
2025-09-11 13:59:19,1572684
2025-09-11 13:59:19,1572743
2025-09-11 13:59:19,1572784
2025-09-11 13:59:19,1572987
2025-09-11 13:59:19,1573058
2025-09-11 13:59:19,1573076
2025-09-11 13:59:19,1573092
2025-09-11 13:59:19,1573225
2025-09-11 13:59:19,1573330
2025-09-11 13:59:19,1573490
2025-09-11 13:59:19,1573533
2025-09-11 13:59:19,1573669
2025-09-11 13:59:19,1573740
2025-09-11 13:59:19,1573977
2025-09-11 13:59:19,1574107
2025-09-11 13:59:19,1574159
2025-09-11 13:59:19,1574299
2025-09-11 13:59:19,1574372
2025-09-11 13:59:19,1574543
2025-09-11 13:59:19,1574694
2025-09-11 13:59:19,1574743
2025-09-11 13:59:19,1574810
2025-09-11 13:59:19,1575108
2025-09-11 13:59:19,1575254
2025-09-11 13:59:19,1575295
2025-09-11 13:59:20,1575436
2025-09-11 13:59:20,1575438
2025-09-11 13:59:20,1575568
2025-09-11 13:59:20,1575586
2025-09-11 13:59:20,1575433
2025-09-11 13:59:20,1575081
2025-09-11 13:59:20,1574639
2025-09-11 13:59:20,1574088
2025-09-11 13:59:20,1573596
2025-09-11 13:59:20,1573094
2025-09-11 13:59:20,1572640
2025-09-11 13:59:20,1572040
2025-09-11 13:59:20,1571763
2025-09-11 13:59:20,1571418
2025-09-11 13:59:20,1571081
2025-09-11 13:59:20,1570937
2025-09-11 13:59:20,1570690
2025-09-11 13:59:20,1570557
2025-09-11 13:59:20,1570538
2025-09-11 13:59:20,1570521
2025-09-11 13:59:20,1570352
2025-09-11 13:59:20,1570401
2025-09-11 13:59:20,1570248
2025-09-11 13:59:20,1570332
2025-09-11 13:59:20,1570370
2025-09-11 13:59:20,1570424
2025-09-11 13:59:20,1570500
2025-09-11 13:59:20,1570492
2025-09-11 13:59:20,1570642
2025-09-11 13:59:20,1570809
2025-09-11 13:59:20,1570918
2025-09-11 13:59:20,1571021
2025-09-11 13:59:20,1571129
2025-09-11 13:59:20,1571184
2025-09-11 13:59:20,1571365
2025-09-11 13:59:20,1571393
2025-09-11 13:59:20,1571397
2025-09-11 13:59:20,1571461
2025-09-11 13:59:20,1571512
2025-09-11 13:59:20,1571600
2025-09-11 13:59:20,1571667
2025-09-11 13:59:20,1571690
2025-09-11 13:59:20,1571690
2025-09-11 13:59:20,1571709
2025-09-11 13:59:20,1571774
2025-09-11 13:59:20,1571868
2025-09-11 13:59:20,1571975
2025-09-11 13:59:20,1572137
2025-09-11 13:59:20,1572177
2025-09-11 13:59:20,1572293
2025-09-11 13:59:20,1572491
2025-09-11 13:59:20,1572593
2025-09-11 13:59:20,1572740
2025-09-11 13:59:20,1572867
2025-09-11 13:59:20,1572859
2025-09-11 13:59:20,1572939
2025-09-11 13:59:20,1573208
2025-09-11 13:59:20,1573298
2025-09-11 13:59:20,1573422
2025-09-11 13:59:20,1573554
2025-09-11 13:59:20,1573689
2025-09-11 13:59:20,1573724
2025-09-11 13:59:20,1573836
2025-09-11 13:59:20,1574074
2025-09-11 13:59:20,1574249
2025-09-11 13:59:20,1574346
2025-09-11 13:59:20,1574565
2025-09-11 13:59:20,1574645
2025-09-11 13:59:20,1574713
2025-09-11 13:59:20,1574851
2025-09-11 13:59:20,1574729
2025-09-11 13:59:20,1574670
2025-09-11 13:59:20,1574453
2025-09-11 13:59:20,1574040
2025-09-11 13:59:20,1573562
2025-09-11 13:59:20,1572994
2025-09-11 13:59:20,1572434
2025-09-11 13:59:20,1571908
2025-09-11 13:59:20,1571411
2025-09-11 13:59:20,1571083
2025-09-11 13:59:20,1570607
2025-09-11 13:59:20,1570578
2025-09-11 13:59:20,1570217
2025-09-11 13:59:20,1570097
2025-09-11 13:59:20,1570007
2025-09-11 13:59:20,1569946
2025-09-11 13:59:20,1569779
2025-09-11 13:59:20,1569690
2025-09-11 13:59:20,1569708
2025-09-11 13:59:20,1569668
2025-09-11 13:59:20,1569673
2025-09-11 13:59:20,1569723
2025-09-11 13:59:20,1569719
2025-09-11 13:59:20,1569841
2025-09-11 13:59:20,1569914
2025-09-11 13:59:20,1569959
2025-09-11 13:59:20,1570058
2025-09-11 13:59:20,1570308
2025-09-11 13:59:20,1570339
2025-09-11 13:59:20,1570499
2025-09-11 13:59:20,1570615
2025-09-11 13:59:21,1570689
2025-09-11 13:59:21,1570798
2025-09-11 13:59:21,1570821
2025-09-11 13:59:21,1570928
2025-09-11 13:59:21,1571022
2025-09-11 13:59:21,1571024
2025-09-11 13:59:21,1571144
2025-09-11 13:59:21,1571080
2025-09-11 13:59:21,1571159
2025-09-11 13:59:21,1571240
2025-09-11 13:59:21,1571350
2025-09-11 13:59:21,1571399
2025-09-11 13:59:21,1571469
2025-09-11 13:59:21,1571579
2025-09-11 13:59:21,1571651
2025-09-11 13:59:21,1571733
2025-09-11 13:59:21,1571834
2025-09-11 13:59:21,1571992
2025-09-11 13:59:21,1572107
2025-09-11 13:59:21,1572240
2025-09-11 13:59:21,1572420
2025-09-11 13:59:21,1572492
2025-09-11 13:59:21,1572715
2025-09-11 13:59:21,1572803
2025-09-11 13:59:21,1572916
2025-09-11 13:59:21,1573047
2025-09-11 13:59:21,1573178
2025-09-11 13:59:21,1573381
2025-09-11 13:59:21,1573459
2025-09-11 13:59:21,1573718
2025-09-11 13:59:21,1573742
2025-09-11 13:59:21,1573930
2025-09-11 13:59:21,1574002
2025-09-11 13:59:21,1574199
2025-09-11 13:59:21,1574373
2025-09-11 13:59:21,1574543
2025-09-11 13:59:21,1574650
2025-09-11 13:59:21,1574763
2025-09-11 13:59:21,1574892
2025-09-11 13:59:21,1574892
2025-09-11 13:59:21,1574897
2025-09-11 13:59:21,1574663
2025-09-11 13:59:21,1574470
2025-09-11 13:59:21,1573944
2025-09-11 13:59:21,1573439
2025-09-11 13:59:21,1572817
2025-09-11 13:59:21,1572257
2025-09-11 13:59:21,1571789
2025-09-11 13:59:21,1571256
2025-09-11 13:59:21,1570865
2025-09-11 13:59:21,1570644
2025-09-11 13:59:21,1570353
2025-09-11 13:59:21,1570240
2025-09-11 13:59:21,1570030
2025-09-11 13:59:21,1569921
2025-09-11 13:59:21,1569738
2025-09-11 13:59:21,1569712
2025-09-11 13:59:21,1569600
2025-09-11 13:59:21,1569593
2025-09-11 13:59:21,1569542
2025-09-11 13:59:21,1569520
2025-09-11 13:59:21,1569572
2025-09-11 13:59:21,1569639
2025-09-11 13:59:21,1569674
2025-09-11 13:59:21,1569839
2025-09-11 13:59:21,1569819
2025-09-11 13:59:21,1570048
2025-09-11 13:59:21,1570151
2025-09-11 13:59:21,1570295
2025-09-11 13:59:21,1570403
2025-09-11 13:59:21,1570451
2025-09-11 13:59:21,1570626
2025-09-11 13:59:21,1570660
2025-09-11 13:59:21,1570706
2025-09-11 13:59:21,1570758
2025-09-11 13:59:21,1570847
2025-09-11 13:59:21,1570826
2025-09-11 13:59:21,1570871
2025-09-11 13:59:21,1570988
2025-09-11 13:59:21,1571016
2025-09-11 13:59:21,1571039
2025-09-11 13:59:21,1571224
2025-09-11 13:59:21,1571160
2025-09-11 13:59:21,1571269
2025-09-11 13:59:21,1571375
2025-09-11 13:59:21,1571433
2025-09-11 13:59:21,1571558
2025-09-11 13:59:21,1571644
2025-09-11 13:59:21,1571805
2025-09-11 13:59:21,1571860
2025-09-11 13:59:21,1572004
2025-09-11 13:59:21,1572204
2025-09-11 13:59:21,1572357
2025-09-11 13:59:21,1572480
2025-09-11 13:59:21,1572684
2025-09-11 13:59:21,1572822
2025-09-11 13:59:21,1572885
2025-09-11 13:59:21,1573017
2025-09-11 13:59:21,1573208
2025-09-11 13:59:22,1573402
2025-09-11 13:59:22,1573484
2025-09-11 13:59:22,1573573
2025-09-11 13:59:22,1573645
2025-09-11 13:59:22,1573873
2025-09-11 13:59:22,1573972
2025-09-11 13:59:22,1574171
2025-09-11 13:59:22,1574358
2025-09-11 13:59:22,1574504
2025-09-11 13:59:22,1574690
2025-09-11 13:59:22,1574766
2025-09-11 13:59:22,1574879
2025-09-11 13:59:22,1574850
2025-09-11 13:59:22,1574946
2025-09-11 13:59:22,1574825
2025-09-11 13:59:22,1574391
2025-09-11 13:59:22,1574062
2025-09-11 13:59:22,1573434
2025-09-11 13:59:22,1572922
2025-09-11 13:59:22,1572287
2025-09-11 13:59:22,1571697
2025-09-11 13:59:22,1571245
2025-09-11 13:59:22,1570785
2025-09-11 13:59:22,1570573
2025-09-11 13:59:22,1570245
2025-09-11 13:59:22,1570162
2025-09-11 13:59:22,1569981
2025-09-11 13:59:22,1569875
2025-09-11 13:59:22,1569747
2025-09-11 13:59:22,1569574
2025-09-11 13:59:22,1569596
2025-09-11 13:59:22,1569449
2025-09-11 13:59:22,1569449
2025-09-11 13:59:22,1569513
2025-09-11 13:59:22,1569580
2025-09-11 13:59:22,1569622
2025-09-11 13:59:22,1569751
2025-09-11 13:59:22,1569680
2025-09-11 13:59:22,1569843
2025-09-11 13:59:22,1569915
2025-09-11 13:59:22,1570061
2025-09-11 13:59:22,1570185
2025-09-11 13:59:22,1570412
2025-09-11 13:59:22,1570446
2025-09-11 13:59:22,1570539
2025-09-11 13:59:22,1570668
2025-09-11 13:59:22,1570705
2025-09-11 13:59:22,1570684
2025-09-11 13:59:22,1570811
2025-09-11 13:59:22,1570835
2025-09-11 13:59:22,1570846
2025-09-11 13:59:22,1570853
2025-09-11 13:59:22,1570928
2025-09-11 13:59:22,1571056
2025-09-11 13:59:22,1571038
2025-09-11 13:59:22,1571108
2025-09-11 13:59:22,1571211
2025-09-11 13:59:22,1571342
2025-09-11 13:59:22,1571418
2025-09-11 13:59:22,1571514
2025-09-11 13:59:22,1571663
2025-09-11 13:59:22,1571687
2025-09-11 13:59:22,1571865
2025-09-11 13:59:22,1572039
2025-09-11 13:59:22,1572133
2025-09-11 13:59:22,1572256
2025-09-11 13:59:22,1572370
2025-09-11 13:59:22,1572555
2025-09-11 13:59:22,1572684
2025-09-11 13:59:22,1572877
2025-09-11 13:59:22,1573031
2025-09-11 13:59:22,1573158
2025-09-11 13:59:22,1573276
2025-09-11 13:59:22,1573400
2025-09-11 13:59:22,1573564
2025-09-11 13:59:22,1573667
2025-09-11 13:59:22,1573814
2025-09-11 13:59:22,1573971
2025-09-11 13:59:22,1574117
2025-09-11 13:59:22,1574232
2025-09-11 13:59:22,1574351
2025-09-11 13:59:22,1574527
2025-09-11 13:59:22,1574726
2025-09-11 13:59:22,1574724
2025-09-11 13:59:22,1574909
2025-09-11 13:59:22,1574926
2025-09-11 13:59:22,1574822
2025-09-11 13:59:22,1574669
2025-09-11 13:59:22,1574269
2025-09-11 13:59:22,1573758
2025-09-11 13:59:22,1573235
2025-09-11 13:59:22,1572651
2025-09-11 13:59:22,1572031
2025-09-11 13:59:22,1571504
2025-09-11 13:59:22,1571038
2025-09-11 13:59:22,1570658
2025-09-11 13:59:22,1570405
2025-09-11 13:59:22,1570198
2025-09-11 13:59:22,1570002
2025-09-11 13:59:22,1569816
2025-09-11 13:59:23,1569709
2025-09-11 13:59:23,1569668
2025-09-11 13:59:23,1569589
2025-09-11 13:59:23,1569553
2025-09-11 13:59:23,1569510
2025-09-11 13:59:23,1569528
2025-09-11 13:59:23,1569451
2025-09-11 13:59:23,1569607
2025-09-11 13:59:23,1569622
2025-09-11 13:59:23,1569674
2025-09-11 13:59:23,1569737
2025-09-11 13:59:23,1569853
2025-09-11 13:59:23,1569956
2025-09-11 13:59:23,1570085
2025-09-11 13:59:23,1570269
2025-09-11 13:59:23,1570403
2025-09-11 13:59:23,1570467
2025-09-11 13:59:23,1570530
2025-09-11 13:59:23,1570713
2025-09-11 13:59:23,1570645
2025-09-11 13:59:23,1570780
2025-09-11 13:59:23,1570838
2025-09-11 13:59:23,1570858
2025-09-11 13:59:23,1570879
2025-09-11 13:59:23,1570933
2025-09-11 13:59:23,1570949
2025-09-11 13:59:23,1571040
2025-09-11 13:59:23,1571127
2025-09-11 13:59:23,1571155
2025-09-11 13:59:23,1571209
2025-09-11 13:59:23,1571359
2025-09-11 13:59:23,1571408
2025-09-11 13:59:23,1571538
2025-09-11 13:59:23,1571659
2025-09-11 13:59:23,1571866
2025-09-11 13:59:23,1571900
2025-09-11 13:59:23,1571989
2025-09-11 13:59:23,1572111
2025-09-11 13:59:23,1572238
2025-09-11 13:59:23,1572468
2025-09-11 13:59:23,1572659
2025-09-11 13:59:23,1572730
2025-09-11 13:59:23,1572882
2025-09-11 13:59:23,1573050
2025-09-11 13:59:23,1573150
2025-09-11 13:59:23,1573339
2025-09-11 13:59:23,1573416
2025-09-11 13:59:23,1573676
2025-09-11 13:59:23,1573714
2025-09-11 13:59:23,1573859
2025-09-11 13:59:23,1573947
2025-09-11 13:59:23,1574125
2025-09-11 13:59:23,1574270
2025-09-11 13:59:23,1574320
2025-09-11 13:59:23,1574594
2025-09-11 13:59:23,1574633
2025-09-11 13:59:23,1574822
2025-09-11 13:59:23,1574851
2025-09-11 13:59:23,1574943
2025-09-11 13:59:23,1574936
2025-09-11 13:59:23,1574634
2025-09-11 13:59:23,1574360
2025-09-11 13:59:23,1573745
2025-09-11 13:59:23,1573160
2025-09-11 13:59:23,1572636
2025-09-11 13:59:23,1571977
2025-09-11 13:59:23,1571486
2025-09-11 13:59:23,1571032
2025-09-11 13:59:23,1570650
2025-09-11 13:59:23,1570350
2025-09-11 13:59:23,1570064
2025-09-11 13:59:23,1569971
2025-09-11 13:59:23,1569783
2025-09-11 13:59:23,1569736
2025-09-11 13:59:23,1569674
2025-09-11 13:59:23,1569654
2025-09-11 13:59:23,1569520
2025-09-11 13:59:23,1569390
2025-09-11 13:59:23,1569435
2025-09-11 13:59:23,1569469
2025-09-11 13:59:23,1569459
2025-09-11 13:59:23,1569580
2025-09-11 13:59:23,1569573
2025-09-11 13:59:23,1569776
2025-09-11 13:59:23,1569923
2025-09-11 13:59:23,1569899
2025-09-11 13:59:23,1570107
2025-09-11 13:59:23,1570264
2025-09-11 13:59:23,1570405
2025-09-11 13:59:23,1570479
2025-09-11 13:59:23,1570672
2025-09-11 13:59:23,1570761
2025-09-11 13:59:23,1570740
2025-09-11 13:59:23,1570814
2025-09-11 13:59:23,1570932
2025-09-11 13:59:23,1570889
2025-09-11 13:59:23,1570984
2025-09-11 13:59:23,1571065
2025-09-11 13:59:23,1571078
2025-09-11 13:59:23,1571191
2025-09-11 13:59:24,1571256
2025-09-11 13:59:24,1571320
2025-09-11 13:59:24,1571461
2025-09-11 13:59:24,1571534
2025-09-11 13:59:24,1571617
2025-09-11 13:59:24,1571744
2025-09-11 13:59:24,1571871
2025-09-11 13:59:24,1571997
2025-09-11 13:59:24,1572184
2025-09-11 13:59:24,1572364
2025-09-11 13:59:24,1572521
2025-09-11 13:59:24,1572603
2025-09-11 13:59:24,1572736
2025-09-11 13:59:24,1572993
2025-09-11 13:59:24,1573103
2025-09-11 13:59:24,1573173
2025-09-11 13:59:24,1573381
2025-09-11 13:59:24,1573485
2025-09-11 13:59:24,1573738
2025-09-11 13:59:24,1573852
2025-09-11 13:59:24,1573982
2025-09-11 13:59:24,1574083
2025-09-11 13:59:24,1574272
2025-09-11 13:59:24,1574306
2025-09-11 13:59:24,1574553
2025-09-11 13:59:24,1574828
2025-09-11 13:59:24,1574809
2025-09-11 13:59:24,1575022
2025-09-11 13:59:24,1575124
2025-09-11 13:59:24,1575247
2025-09-11 13:59:24,1575342
2025-09-11 13:59:24,1575319
2025-09-11 13:59:24,1575163
2025-09-11 13:59:24,1574779
2025-09-11 13:59:24,1574318
2025-09-11 13:59:24,1573757
2025-09-11 13:59:24,1573214
2025-09-11 13:59:24,1572524
2025-09-11 13:59:24,1571994
2025-09-11 13:59:24,1571530
2025-09-11 13:59:24,1571171
2025-09-11 13:59:24,1570792
2025-09-11 13:59:24,1570550
2025-09-11 13:59:24,1570424
2025-09-11 13:59:24,1570334
2025-09-11 13:59:24,1570155
2025-09-11 13:59:24,1570146
2025-09-11 13:59:24,1570008
2025-09-11 13:59:24,1570074
2025-09-11 13:59:24,1570036
2025-09-11 13:59:24,1570070
2025-09-11 13:59:24,1570111
2025-09-11 13:59:24,1570251
2025-09-11 13:59:24,1570194
2025-09-11 13:59:24,1570364
2025-09-11 13:59:24,1570367
2025-09-11 13:59:24,1570549
2025-09-11 13:59:24,1570603
2025-09-11 13:59:24,1570794
2025-09-11 13:59:24,1570926
2025-09-11 13:59:24,1571048
2025-09-11 13:59:24,1571211
2025-09-11 13:59:24,1571244
2025-09-11 13:59:24,1571326
2025-09-11 13:59:24,1571369
2025-09-11 13:59:24,1571428
2025-09-11 13:59:24,1571464
2025-09-11 13:59:24,1571500
2025-09-11 13:59:24,1571522
2025-09-11 13:59:24,1571581
2025-09-11 13:59:24,1571627
2025-09-11 13:59:24,1571666
2025-09-11 13:59:24,1571648
2025-09-11 13:59:24,1571863
2025-09-11 13:59:24,1571847
2025-09-11 13:59:24,1571945
2025-09-11 13:59:24,1572098
2025-09-11 13:59:24,1572167
2025-09-11 13:59:24,1572301
2025-09-11 13:59:24,1572411
2025-09-11 13:59:24,1572578
2025-09-11 13:59:24,1572734
2025-09-11 13:59:24,1572777
2025-09-11 13:59:24,1572919
2025-09-11 13:59:24,1573150
2025-09-11 13:59:24,1573208
2025-09-11 13:59:24,1573394
2025-09-11 13:59:24,1573436
2025-09-11 13:59:24,1573637
2025-09-11 13:59:24,1573817
2025-09-11 13:59:24,1573892
2025-09-11 13:59:24,1574008
2025-09-11 13:59:24,1574153
2025-09-11 13:59:24,1574336
2025-09-11 13:59:24,1574471
2025-09-11 13:59:24,1574635
2025-09-11 13:59:24,1574710
2025-09-11 13:59:24,1574789
2025-09-11 13:59:24,1575024
2025-09-11 13:59:24,1575107
2025-09-11 13:59:25,1575003
2025-09-11 13:59:25,1574984
2025-09-11 13:59:25,1574651
2025-09-11 13:59:25,1574152
2025-09-11 13:59:25,1573646
2025-09-11 13:59:25,1572986
2025-09-11 13:59:25,1572452
2025-09-11 13:59:25,1571879
2025-09-11 13:59:25,1571402
2025-09-11 13:59:25,1570974
2025-09-11 13:59:25,1570686
2025-09-11 13:59:25,1570367
2025-09-11 13:59:25,1570134
2025-09-11 13:59:25,1570068
2025-09-11 13:59:25,1569902
2025-09-11 13:59:25,1569846
2025-09-11 13:59:25,1569830
2025-09-11 13:59:25,1569743
2025-09-11 13:59:25,1569720
2025-09-11 13:59:25,1569676
2025-09-11 13:59:25,1569746
2025-09-11 13:59:25,1569784
2025-09-11 13:59:25,1569816
2025-09-11 13:59:25,1569846
2025-09-11 13:59:25,1569978
2025-09-11 13:59:25,1570024
2025-09-11 13:59:25,1570294
2025-09-11 13:59:25,1570336
2025-09-11 13:59:25,1570507
2025-09-11 13:59:25,1570648
2025-09-11 13:59:25,1570652
2025-09-11 13:59:25,1570720
2025-09-11 13:59:25,1570784
2025-09-11 13:59:25,1570820
2025-09-11 13:59:25,1570887
2025-09-11 13:59:25,1570978
2025-09-11 13:59:25,1570840
2025-09-11 13:59:25,1570933
2025-09-11 13:59:25,1570952
2025-09-11 13:59:25,1570939
2025-09-11 13:59:25,1571060
2025-09-11 13:59:25,1571125
2025-09-11 13:59:25,1571135
2025-09-11 13:59:25,1571214
2025-09-11 13:59:25,1571259
2025-09-11 13:59:25,1571369
2025-09-11 13:59:25,1571366
2025-09-11 13:59:25,1571550
2025-09-11 13:59:25,1571594
2025-09-11 13:59:25,1571738
2025-09-11 13:59:25,1571863
2025-09-11 13:59:25,1572007
2025-09-11 13:59:25,1572225
2025-09-11 13:59:25,1572225
2025-09-11 13:59:25,1572448
2025-09-11 13:59:25,1572614
2025-09-11 13:59:25,1572628
2025-09-11 13:59:25,1572743
2025-09-11 13:59:25,1572916
2025-09-11 13:59:25,1572921
2025-09-11 13:59:25,1573135
2025-09-11 13:59:25,1573333
2025-09-11 13:59:25,1573394
2025-09-11 13:59:25,1573560
2025-09-11 13:59:25,1573753
2025-09-11 13:59:25,1573834
2025-09-11 13:59:25,1573946
2025-09-11 13:59:25,1573813
2025-09-11 13:59:25,1573702
2025-09-11 13:59:25,1573510
2025-09-11 13:59:25,1573005
2025-09-11 13:59:25,1572381
2025-09-11 13:59:25,1571689
2025-09-11 13:59:25,1571224
2025-09-11 13:59:25,1570621
2025-09-11 13:59:25,1570057
2025-09-11 13:59:25,1569532
2025-09-11 13:59:25,1569277
2025-09-11 13:59:25,1569130
2025-09-11 13:59:25,1568821
2025-09-11 13:59:25,1568672
2025-09-11 13:59:25,1568449
2025-09-11 13:59:25,1568437
2025-09-11 13:59:25,1568414
2025-09-11 13:59:25,1568267
2025-09-11 13:59:25,1568206
2025-09-11 13:59:25,1568103
2025-09-11 13:59:25,1568249
2025-09-11 13:59:25,1568151
2025-09-11 13:59:25,1568248
2025-09-11 13:59:25,1568211
2025-09-11 13:59:25,1568314
2025-09-11 13:59:25,1568260
2025-09-11 13:59:25,1568535
2025-09-11 13:59:25,1568587
2025-09-11 13:59:25,1568705
2025-09-11 13:59:25,1568801
2025-09-11 13:59:25,1568969
2025-09-11 13:59:25,1569049
2025-09-11 13:59:25,1569061
2025-09-11 13:59:26,1569143
2025-09-11 13:59:26,1569099
2025-09-11 13:59:26,1569152
2025-09-11 13:59:26,1569212
2025-09-11 13:59:26,1569241
2025-09-11 13:59:26,1569211
2025-09-11 13:59:26,1569247
2025-09-11 13:59:26,1569376
2025-09-11 13:59:26,1569413
2025-09-11 13:59:26,1569405
2025-09-11 13:59:26,1569479
2025-09-11 13:59:26,1569604
2025-09-11 13:59:26,1569656
2025-09-11 13:59:26,1569786
2025-09-11 13:59:26,1569927
2025-09-11 13:59:26,1569984
2025-09-11 13:59:26,1570138
2025-09-11 13:59:26,1570260
2025-09-11 13:59:26,1570466
2025-09-11 13:59:26,1570670
2025-09-11 13:59:26,1570695
2025-09-11 13:59:26,1570762
2025-09-11 13:59:26,1570964
2025-09-11 13:59:26,1571139
2025-09-11 13:59:26,1571296
2025-09-11 13:59:26,1571317
2025-09-11 13:59:26,1571558
2025-09-11 13:59:26,1571675
2025-09-11 13:59:26,1571760
2025-09-11 13:59:26,1571987
2025-09-11 13:59:26,1572104
2025-09-11 13:59:26,1572329
2025-09-11 13:59:26,1572422
2025-09-11 13:59:26,1572691
2025-09-11 13:59:26,1572696
2025-09-11 13:59:26,1572805
2025-09-11 13:59:26,1572874
2025-09-11 13:59:26,1572875
2025-09-11 13:59:26,1572613
2025-09-11 13:59:26,1572140
2025-09-11 13:59:26,1571581
2025-09-11 13:59:26,1571006
2025-09-11 13:59:26,1570414
2025-09-11 13:59:26,1569700
2025-09-11 13:59:26,1569167
2025-09-11 13:59:26,1568761
2025-09-11 13:59:26,1568369
2025-09-11 13:59:26,1568172
2025-09-11 13:59:26,1567919
2025-09-11 13:59:26,1567818
2025-09-11 13:59:26,1567698
2025-09-11 13:59:26,1567634
2025-09-11 13:59:26,1567555
2025-09-11 13:59:26,1567478
2025-09-11 13:59:26,1567398
2025-09-11 13:59:26,1567395
2025-09-11 13:59:26,1567294
2025-09-11 13:59:26,1567362
2025-09-11 13:59:26,1567333
2025-09-11 13:59:26,1567375
2025-09-11 13:59:26,1567437
2025-09-11 13:59:26,1567596
2025-09-11 13:59:26,1567719
2025-09-11 13:59:26,1567813
2025-09-11 13:59:26,1567919
2025-09-11 13:59:26,1568060
2025-09-11 13:59:26,1568094
2025-09-11 13:59:26,1568247
2025-09-11 13:59:26,1568358
2025-09-11 13:59:26,1568482
2025-09-11 13:59:26,1568503
2025-09-11 13:59:26,1568616
2025-09-11 13:59:26,1568683
2025-09-11 13:59:26,1568601
2025-09-11 13:59:26,1568675
2025-09-11 13:59:26,1568647
2025-09-11 13:59:26,1568747
2025-09-11 13:59:26,1568813
2025-09-11 13:59:26,1568866
2025-09-11 13:59:26,1568918
2025-09-11 13:59:26,1568958
2025-09-11 13:59:26,1568992
2025-09-11 13:59:26,1569082
2025-09-11 13:59:26,1569195
2025-09-11 13:59:26,1569416
2025-09-11 13:59:26,1569517
2025-09-11 13:59:26,1569661
2025-09-11 13:59:26,1569858
2025-09-11 13:59:26,1569991
2025-09-11 13:59:26,1569999
2025-09-11 13:59:26,1570170
2025-09-11 13:59:26,1570392
2025-09-11 13:59:26,1570579
2025-09-11 13:59:26,1570669
2025-09-11 13:59:26,1570818
2025-09-11 13:59:26,1570924
2025-09-11 13:59:26,1571092
2025-09-11 13:59:26,1571237
2025-09-11 13:59:26,1571382
2025-09-11 13:59:26,1571517
2025-09-11 13:59:27,1571692
2025-09-11 13:59:27,1571813
2025-09-11 13:59:27,1571945
2025-09-11 13:59:27,1572243
2025-09-11 13:59:27,1572334
2025-09-11 13:59:27,1572378
2025-09-11 13:59:27,1572590
2025-09-11 13:59:27,1572725
2025-09-11 13:59:27,1572794
2025-09-11 13:59:27,1572763
2025-09-11 13:59:27,1572654
2025-09-11 13:59:27,1572197
2025-09-11 13:59:27,1571723
2025-09-11 13:59:27,1571276
2025-09-11 13:59:27,1570516
2025-09-11 13:59:27,1569885
2025-09-11 13:59:27,1569235
2025-09-11 13:59:27,1568819
2025-09-11 13:59:27,1568375
2025-09-11 13:59:27,1568012
2025-09-11 13:59:27,1567754
2025-09-11 13:59:27,1567575
2025-09-11 13:59:27,1567404
2025-09-11 13:59:27,1567336
2025-09-11 13:59:27,1567284
2025-09-11 13:59:27,1567180
2025-09-11 13:59:27,1567184
2025-09-11 13:59:27,1567075
2025-09-11 13:59:27,1567119
2025-09-11 13:59:27,1567065
2025-09-11 13:59:27,1567065
2025-09-11 13:59:27,1567193
2025-09-11 13:59:27,1567098
2025-09-11 13:59:27,1567291
2025-09-11 13:59:27,1567380
2025-09-11 13:59:27,1567418
2025-09-11 13:59:27,1567597
2025-09-11 13:59:27,1567751
2025-09-11 13:59:27,1567824
2025-09-11 13:59:27,1567910
2025-09-11 13:59:27,1567984
2025-09-11 13:59:27,1568096
2025-09-11 13:59:27,1568166
2025-09-11 13:59:27,1568230
2025-09-11 13:59:27,1568131
2025-09-11 13:59:27,1568314
2025-09-11 13:59:27,1568401
2025-09-11 13:59:27,1568319
2025-09-11 13:59:27,1568376
2025-09-11 13:59:27,1568373
2025-09-11 13:59:27,1568465
2025-09-11 13:59:27,1568536
2025-09-11 13:59:27,1568502
2025-09-11 13:59:27,1568649
2025-09-11 13:59:27,1568652
2025-09-11 13:59:27,1568780
2025-09-11 13:59:27,1568953
2025-09-11 13:59:27,1569091
2025-09-11 13:59:27,1569250
2025-09-11 13:59:27,1569317
2025-09-11 13:59:27,1569484
2025-09-11 13:59:27,1569582
2025-09-11 13:59:27,1569774
2025-09-11 13:59:27,1569911
2025-09-11 13:59:27,1570093
2025-09-11 13:59:27,1570275
2025-09-11 13:59:27,1570365
2025-09-11 13:59:27,1570559
2025-09-11 13:59:27,1570702
2025-09-11 13:59:27,1570848
2025-09-11 13:59:27,1571025
2025-09-11 13:59:27,1571120
2025-09-11 13:59:27,1571279
2025-09-11 13:59:27,1571271
2025-09-11 13:59:27,1571574
2025-09-11 13:59:27,1571716
2025-09-11 13:59:27,1571808
2025-09-11 13:59:27,1571914
2025-09-11 13:59:27,1572150
2025-09-11 13:59:27,1572300
2025-09-11 13:59:27,1572414
2025-09-11 13:59:27,1572453
2025-09-11 13:59:27,1572685
2025-09-11 13:59:27,1572661
2025-09-11 13:59:27,1572638
2025-09-11 13:59:27,1572352
2025-09-11 13:59:27,1571904
2025-09-11 13:59:27,1571391
2025-09-11 13:59:27,1570747
2025-09-11 13:59:27,1569985
2025-09-11 13:59:27,1569432
2025-09-11 13:59:27,1568759
2025-09-11 13:59:27,1568401
2025-09-11 13:59:27,1568019
2025-09-11 13:59:27,1567683
2025-09-11 13:59:27,1567417
2025-09-11 13:59:27,1567242
2025-09-11 13:59:27,1567169
2025-09-11 13:59:27,1567036
2025-09-11 13:59:27,1566969
2025-09-11 13:59:28,1566902
2025-09-11 13:59:28,1566835
2025-09-11 13:59:28,1566783
2025-09-11 13:59:28,1566745
2025-09-11 13:59:28,1566833
2025-09-11 13:59:28,1566846
2025-09-11 13:59:28,1566894
2025-09-11 13:59:28,1566852
2025-09-11 13:59:28,1567014
2025-09-11 13:59:28,1567086
2025-09-11 13:59:28,1567283
2025-09-11 13:59:28,1567395
2025-09-11 13:59:28,1567470
2025-09-11 13:59:28,1567570
2025-09-11 13:59:28,1567733
2025-09-11 13:59:28,1567863
2025-09-11 13:59:28,1567900
2025-09-11 13:59:28,1567885
2025-09-11 13:59:28,1568000
2025-09-11 13:59:28,1567960
2025-09-11 13:59:28,1568049
2025-09-11 13:59:28,1568064
2025-09-11 13:59:28,1568097
2025-09-11 13:59:28,1568173
2025-09-11 13:59:28,1568215
2025-09-11 13:59:28,1568222
2025-09-11 13:59:28,1568333
2025-09-11 13:59:28,1568368
2025-09-11 13:59:28,1568462
2025-09-11 13:59:28,1568565
2025-09-11 13:59:28,1568653
2025-09-11 13:59:28,1568820
2025-09-11 13:59:28,1568990
2025-09-11 13:59:28,1569021
2025-09-11 13:59:28,1569244
2025-09-11 13:59:28,1569401
2025-09-11 13:59:28,1569622
2025-09-11 13:59:28,1569653
2025-09-11 13:59:28,1569856
2025-09-11 13:59:28,1570108
2025-09-11 13:59:28,1570221
2025-09-11 13:59:28,1570365
2025-09-11 13:59:28,1570480
2025-09-11 13:59:28,1570681
2025-09-11 13:59:28,1570824
2025-09-11 13:59:28,1571017
2025-09-11 13:59:28,1571219
2025-09-11 13:59:28,1571326
2025-09-11 13:59:28,1571513
2025-09-11 13:59:28,1571652
2025-09-11 13:59:28,1571838
2025-09-11 13:59:28,1571930
2025-09-11 13:59:28,1572124
2025-09-11 13:59:28,1572325
2025-09-11 13:59:28,1572468
2025-09-11 13:59:28,1572603
2025-09-11 13:59:28,1572707
2025-09-11 13:59:28,1572792
2025-09-11 13:59:28,1572745
2025-09-11 13:59:28,1572633
2025-09-11 13:59:28,1572237
2025-09-11 13:59:28,1571761
2025-09-11 13:59:28,1571111
2025-09-11 13:59:28,1570466
2025-09-11 13:59:28,1569852
2025-09-11 13:59:28,1569173
2025-09-11 13:59:28,1568713
2025-09-11 13:59:28,1568321
2025-09-11 13:59:28,1567924
2025-09-11 13:59:28,1567691
2025-09-11 13:59:28,1567552
2025-09-11 13:59:28,1567329
2025-09-11 13:59:28,1567279
2025-09-11 13:59:28,1567156
2025-09-11 13:59:28,1567218
2025-09-11 13:59:28,1567065
2025-09-11 13:59:28,1567100
2025-09-11 13:59:28,1566977
2025-09-11 13:59:28,1567033
2025-09-11 13:59:28,1567079
2025-09-11 13:59:28,1567171
2025-09-11 13:59:28,1567174
2025-09-11 13:59:28,1567300
2025-09-11 13:59:28,1567388
2025-09-11 13:59:28,1567509
2025-09-11 13:59:28,1567659
2025-09-11 13:59:28,1567691
2025-09-11 13:59:28,1567846
2025-09-11 13:59:28,1567898
2025-09-11 13:59:28,1568061
2025-09-11 13:59:28,1568181
2025-09-11 13:59:28,1568158
2025-09-11 13:59:28,1568208
2025-09-11 13:59:28,1568333
2025-09-11 13:59:28,1568284
2025-09-11 13:59:28,1568292
2025-09-11 13:59:28,1568410
2025-09-11 13:59:28,1568372
2025-09-11 13:59:28,1568354
2025-09-11 13:59:28,1568400
2025-09-11 13:59:29,1568437
2025-09-11 13:59:29,1568502
2025-09-11 13:59:29,1568501
2025-09-11 13:59:29,1568650
2025-09-11 13:59:29,1568715
2025-09-11 13:59:29,1568758
2025-09-11 13:59:29,1568939
2025-09-11 13:59:29,1569080
2025-09-11 13:59:29,1569176
2025-09-11 13:59:29,1569262
2025-09-11 13:59:29,1569518
2025-09-11 13:59:29,1569611
2025-09-11 13:59:29,1569664
2025-09-11 13:59:29,1569846
2025-09-11 13:59:29,1569974
2025-09-11 13:59:29,1570158
2025-09-11 13:59:29,1570194
2025-09-11 13:59:29,1570369
2025-09-11 13:59:29,1570542
2025-09-11 13:59:29,1570674
2025-09-11 13:59:29,1570789
2025-09-11 13:59:29,1570932
2025-09-11 13:59:29,1571038
2025-09-11 13:59:29,1571224
2025-09-11 13:59:29,1571346
2025-09-11 13:59:29,1571534
2025-09-11 13:59:29,1571675
2025-09-11 13:59:29,1571860
2025-09-11 13:59:29,1571924
2025-09-11 13:59:29,1572089
2025-09-11 13:59:29,1572101
2025-09-11 13:59:29,1572117
2025-09-11 13:59:29,1571893
2025-09-11 13:59:29,1571399
2025-09-11 13:59:29,1570861
2025-09-11 13:59:29,1570268
2025-09-11 13:59:29,1569531
2025-09-11 13:59:29,1568990
2025-09-11 13:59:29,1568317
2025-09-11 13:59:29,1567727
2025-09-11 13:59:29,1567465
2025-09-11 13:59:29,1567126
2025-09-11 13:59:29,1566864
2025-09-11 13:59:29,1566706
2025-09-11 13:59:29,1566563
2025-09-11 13:59:29,1566519
2025-09-11 13:59:29,1566393
2025-09-11 13:59:29,1566404
2025-09-11 13:59:29,1566280
2025-09-11 13:59:29,1566344
2025-09-11 13:59:29,1566332
2025-09-11 13:59:29,1566313
2025-09-11 13:59:29,1566301
2025-09-11 13:59:29,1566446
2025-09-11 13:59:29,1566453
2025-09-11 13:59:29,1566557
2025-09-11 13:59:29,1566611
2025-09-11 13:59:29,1566836
2025-09-11 13:59:29,1566911
2025-09-11 13:59:29,1567030
2025-09-11 13:59:29,1567104
2025-09-11 13:59:29,1567253
2025-09-11 13:59:29,1567312
2025-09-11 13:59:29,1567344
2025-09-11 13:59:29,1567378
2025-09-11 13:59:29,1567473
2025-09-11 13:59:29,1567554
2025-09-11 13:59:29,1567464
2025-09-11 13:59:29,1567593
2025-09-11 13:59:29,1567652
2025-09-11 13:59:29,1567676
2025-09-11 13:59:29,1567636
2025-09-11 13:59:29,1567703
2025-09-11 13:59:29,1567833
2025-09-11 13:59:29,1567864
2025-09-11 13:59:29,1568010
2025-09-11 13:59:29,1568131
2025-09-11 13:59:29,1568101
2025-09-11 13:59:29,1568237
2025-09-11 13:59:29,1568359
2025-09-11 13:59:29,1568527
2025-09-11 13:59:29,1568585
2025-09-11 13:59:29,1568767
2025-09-11 13:59:29,1568930
2025-09-11 13:59:29,1569066
2025-09-11 13:59:29,1569198
2025-09-11 13:59:29,1569435
2025-09-11 13:59:29,1569536
2025-09-11 13:59:29,1569681
2025-09-11 13:59:29,1569773
2025-09-11 13:59:29,1569979
2025-09-11 13:59:29,1570061
2025-09-11 13:59:29,1570169
2025-09-11 13:59:29,1570379
2025-09-11 13:59:29,1570594
2025-09-11 13:59:29,1570703
2025-09-11 13:59:29,1570816
2025-09-11 13:59:29,1570991
2025-09-11 13:59:29,1571166
2025-09-11 13:59:30,1571392
2025-09-11 13:59:30,1571443
2025-09-11 13:59:30,1571539
2025-09-11 13:59:30,1571703
2025-09-11 13:59:30,1571726
2025-09-11 13:59:30,1571702
2025-09-11 13:59:30,1571523
2025-09-11 13:59:30,1571026
2025-09-11 13:59:30,1570483
2025-09-11 13:59:30,1569843
2025-09-11 13:59:30,1569294
2025-09-11 13:59:30,1568549
2025-09-11 13:59:30,1567950
2025-09-11 13:59:30,1567475
2025-09-11 13:59:30,1566994
2025-09-11 13:59:30,1566670
2025-09-11 13:59:30,1566473
2025-09-11 13:59:30,1566335
2025-09-11 13:59:30,1566196
2025-09-11 13:59:30,1566131
2025-09-11 13:59:30,1566082
2025-09-11 13:59:30,1566054
2025-09-11 13:59:30,1565915
2025-09-11 13:59:30,1566030
2025-09-11 13:59:30,1565900
2025-09-11 13:59:30,1565892
2025-09-11 13:59:30,1565986
2025-09-11 13:59:30,1565954
2025-09-11 13:59:30,1566054
2025-09-11 13:59:30,1566089
2025-09-11 13:59:30,1566222
2025-09-11 13:59:30,1566286
2025-09-11 13:59:30,1566505
2025-09-11 13:59:30,1566586
2025-09-11 13:59:30,1566600
2025-09-11 13:59:30,1566772
2025-09-11 13:59:30,1566996
2025-09-11 13:59:30,1566929
2025-09-11 13:59:30,1567081
2025-09-11 13:59:30,1567106
2025-09-11 13:59:30,1567138
2025-09-11 13:59:30,1567135
2025-09-11 13:59:30,1567168
2025-09-11 13:59:30,1567244
2025-09-11 13:59:30,1567241
2025-09-11 13:59:30,1567341
2025-09-11 13:59:30,1567376
2025-09-11 13:59:30,1567458
2025-09-11 13:59:30,1567535
2025-09-11 13:59:30,1567596
2025-09-11 13:59:30,1567720
2025-09-11 13:59:30,1567809
2025-09-11 13:59:30,1567960
2025-09-11 13:59:30,1567930
2025-09-11 13:59:30,1568186
2025-09-11 13:59:30,1568290
2025-09-11 13:59:30,1568393
2025-09-11 13:59:30,1568562
2025-09-11 13:59:30,1568737
2025-09-11 13:59:30,1568908
2025-09-11 13:59:30,1569013
2025-09-11 13:59:30,1569170
2025-09-11 13:59:30,1569335
2025-09-11 13:59:30,1569435
2025-09-11 13:59:30,1569628
2025-09-11 13:59:30,1569795
2025-09-11 13:59:30,1569933
2025-09-11 13:59:30,1570127
2025-09-11 13:59:30,1570153
2025-09-11 13:59:30,1570420
2025-09-11 13:59:30,1570454
2025-09-11 13:59:30,1570770
2025-09-11 13:59:30,1570806
2025-09-11 13:59:30,1570999
2025-09-11 13:59:30,1571173
2025-09-11 13:59:30,1571314
2025-09-11 13:59:30,1571412
2025-09-11 13:59:30,1571546
2025-09-11 13:59:30,1571575
2025-09-11 13:59:30,1571534
2025-09-11 13:59:30,1571402
2025-09-11 13:59:30,1570971
2025-09-11 13:59:30,1570350
2025-09-11 13:59:30,1569720
2025-09-11 13:59:30,1569119
2025-09-11 13:59:30,1568437
2025-09-11 13:59:30,1567787
2025-09-11 13:59:30,1567259
2025-09-11 13:59:30,1566939
2025-09-11 13:59:30,1566538
2025-09-11 13:59:30,1566387
2025-09-11 13:59:30,1566209
2025-09-11 13:59:30,1566036
2025-09-11 13:59:30,1566010
2025-09-11 13:59:30,1565942
2025-09-11 13:59:30,1565812
2025-09-11 13:59:30,1565842
2025-09-11 13:59:30,1565801
2025-09-11 13:59:30,1565781
2025-09-11 13:59:30,1565790
2025-09-11 13:59:31,1565794
2025-09-11 13:59:31,1565765
2025-09-11 13:59:31,1565926
2025-09-11 13:59:31,1566010
2025-09-11 13:59:31,1566151
2025-09-11 13:59:31,1566347
2025-09-11 13:59:31,1566466
2025-09-11 13:59:31,1566526
2025-09-11 13:59:31,1566677
2025-09-11 13:59:31,1566824
2025-09-11 13:59:31,1566834
2025-09-11 13:59:31,1566918
2025-09-11 13:59:31,1566988
2025-09-11 13:59:31,1567072
2025-09-11 13:59:31,1567170
2025-09-11 13:59:31,1567263
2025-09-11 13:59:31,1567296
2025-09-11 13:59:31,1567303
2025-09-11 13:59:31,1567367
2025-09-11 13:59:31,1567419
2025-09-11 13:59:31,1567494
2025-09-11 13:59:31,1567531
2025-09-11 13:59:31,1567755
2025-09-11 13:59:31,1567772
2025-09-11 13:59:31,1567842
2025-09-11 13:59:31,1567944
2025-09-11 13:59:31,1568038
2025-09-11 13:59:31,1568296
2025-09-11 13:59:31,1568367
2025-09-11 13:59:31,1568569
2025-09-11 13:59:31,1568739
2025-09-11 13:59:31,1568862
2025-09-11 13:59:31,1569090
2025-09-11 13:59:31,1569280
2025-09-11 13:59:31,1569418
2025-09-11 13:59:31,1569570
2025-09-11 13:59:31,1569741
2025-09-11 13:59:31,1569877
2025-09-11 13:59:31,1570066
2025-09-11 13:59:31,1570190
2025-09-11 13:59:31,1570378
2025-09-11 13:59:31,1570583
2025-09-11 13:59:31,1570740
2025-09-11 13:59:31,1570754
2025-09-11 13:59:31,1570974
2025-09-11 13:59:31,1571149
2025-09-11 13:59:31,1571270
2025-09-11 13:59:31,1571402
2025-09-11 13:59:31,1571594
2025-09-11 13:59:31,1571830
2025-09-11 13:59:31,1571912
2025-09-11 13:59:31,1572124
2025-09-11 13:59:31,1572251
2025-09-11 13:59:31,1572290
2025-09-11 13:59:31,1572344
2025-09-11 13:59:31,1572274
2025-09-11 13:59:31,1572011
2025-09-11 13:59:31,1571448
2025-09-11 13:59:31,1570895
2025-09-11 13:59:31,1570182
2025-09-11 13:59:31,1569477
2025-09-11 13:59:31,1568911
2025-09-11 13:59:31,1568310
2025-09-11 13:59:31,1567887
2025-09-11 13:59:31,1567476
2025-09-11 13:59:31,1567290
2025-09-11 13:59:31,1567093
2025-09-11 13:59:31,1566909
2025-09-11 13:59:31,1566902
2025-09-11 13:59:31,1566787
2025-09-11 13:59:31,1566768
2025-09-11 13:59:31,1566813
2025-09-11 13:59:31,1566838
2025-09-11 13:59:31,1566827
2025-09-11 13:59:31,1566882
2025-09-11 13:59:31,1566923
2025-09-11 13:59:31,1566897
2025-09-11 13:59:31,1567090
2025-09-11 13:59:31,1567061
2025-09-11 13:59:31,1567279
2025-09-11 13:59:31,1567327
2025-09-11 13:59:31,1567494
2025-09-11 13:59:31,1567597
2025-09-11 13:59:31,1567804
2025-09-11 13:59:31,1567962
2025-09-11 13:59:31,1567994
2025-09-11 13:59:31,1568120
2025-09-11 13:59:31,1568120
2025-09-11 13:59:31,1568166
2025-09-11 13:59:31,1568218
2025-09-11 13:59:31,1568249
2025-09-11 13:59:31,1568334
2025-09-11 13:59:31,1568376
2025-09-11 13:59:31,1568423
2025-09-11 13:59:31,1568395
2025-09-11 13:59:31,1568497
2025-09-11 13:59:31,1568595
2025-09-11 13:59:31,1568654
2025-09-11 13:59:31,1568665
2025-09-11 13:59:31,1568761
2025-09-11 13:59:31,1568882
2025-09-11 13:59:32,1568994
2025-09-11 13:59:32,1569104
2025-09-11 13:59:32,1569265
2025-09-11 13:59:32,1569444
2025-09-11 13:59:32,1569581
2025-09-11 13:59:32,1569665
2025-09-11 13:59:32,1569939
2025-09-11 13:59:32,1570093
2025-09-11 13:59:32,1570262
2025-09-11 13:59:32,1570303
2025-09-11 13:59:32,1570449
2025-09-11 13:59:32,1570599
2025-09-11 13:59:32,1570757
2025-09-11 13:59:32,1570931
2025-09-11 13:59:32,1571092
2025-09-11 13:59:32,1571229
2025-09-11 13:59:32,1571372
2025-09-11 13:59:32,1571467
2025-09-11 13:59:32,1571539
2025-09-11 13:59:32,1571747
2025-09-11 13:59:32,1571932
2025-09-11 13:59:32,1571992
2025-09-11 13:59:32,1572174
2025-09-11 13:59:32,1572295
2025-09-11 13:59:32,1572317
2025-09-11 13:59:32,1572461
2025-09-11 13:59:32,1572386
2025-09-11 13:59:32,1572145
2025-09-11 13:59:32,1571630
2025-09-11 13:59:32,1571065
2025-09-11 13:59:32,1570346
2025-09-11 13:59:32,1569768
2025-09-11 13:59:32,1569057
2025-09-11 13:59:32,1568513
2025-09-11 13:59:32,1567971
2025-09-11 13:59:32,1567516
2025-09-11 13:59:32,1567343
2025-09-11 13:59:32,1567042
2025-09-11 13:59:32,1566830
2025-09-11 13:59:32,1566674
2025-09-11 13:59:32,1566546
2025-09-11 13:59:32,1566579
2025-09-11 13:59:32,1566536
2025-09-11 13:59:32,1566428
2025-09-11 13:59:32,1566511
2025-09-11 13:59:32,1566448
2025-09-11 13:59:32,1566514
2025-09-11 13:59:32,1566586
2025-09-11 13:59:32,1566564
2025-09-11 13:59:32,1566726
2025-09-11 13:59:32,1566752
2025-09-11 13:59:32,1566889
2025-09-11 13:59:32,1567047
2025-09-11 13:59:32,1567138
2025-09-11 13:59:32,1567356
2025-09-11 13:59:32,1567469
2025-09-11 13:59:32,1567587
2025-09-11 13:59:32,1567623
2025-09-11 13:59:32,1567690
2025-09-11 13:59:32,1567693
2025-09-11 13:59:32,1567754
2025-09-11 13:59:32,1567777
2025-09-11 13:59:32,1567884
2025-09-11 13:59:32,1567872
2025-09-11 13:59:32,1567809
2025-09-11 13:59:32,1567962
2025-09-11 13:59:32,1567955
2025-09-11 13:59:32,1567994
2025-09-11 13:59:32,1568065
2025-09-11 13:59:32,1568170
2025-09-11 13:59:32,1568201
2025-09-11 13:59:32,1568281
2025-09-11 13:59:32,1568394
2025-09-11 13:59:32,1568488
2025-09-11 13:59:32,1568588
2025-09-11 13:59:32,1568719
2025-09-11 13:59:32,1568893
2025-09-11 13:59:32,1569028
2025-09-11 13:59:32,1569102
2025-09-11 13:59:32,1569325
2025-09-11 13:59:32,1569443
2025-09-11 13:59:32,1569604
2025-09-11 13:59:32,1569819
2025-09-11 13:59:32,1569830
2025-09-11 13:59:32,1569937
2025-09-11 13:59:32,1570115
2025-09-11 13:59:32,1570232
2025-09-11 13:59:32,1570359
2025-09-11 13:59:32,1570522
2025-09-11 13:59:32,1570611
2025-09-11 13:59:32,1570851
2025-09-11 13:59:32,1570968
2025-09-11 13:59:32,1571068
2025-09-11 13:59:32,1571147
2025-09-11 13:59:32,1571190
2025-09-11 13:59:32,1571252
2025-09-11 13:59:32,1571062
2025-09-11 13:59:32,1570736
2025-09-11 13:59:32,1570212
2025-09-11 13:59:32,1569528
2025-09-11 13:59:33,1568911
2025-09-11 13:59:33,1568288
2025-09-11 13:59:33,1567629
2025-09-11 13:59:33,1567061
2025-09-11 13:59:33,1566581
2025-09-11 13:59:33,1566302
2025-09-11 13:59:33,1565996
2025-09-11 13:59:33,1565844
2025-09-11 13:59:33,1565714
2025-09-11 13:59:33,1565548
2025-09-11 13:59:33,1565538
2025-09-11 13:59:33,1565402
2025-09-11 13:59:33,1565424
2025-09-11 13:59:33,1565360
2025-09-11 13:59:33,1565303
2025-09-11 13:59:33,1565333
2025-09-11 13:59:33,1565319
2025-09-11 13:59:33,1565267
2025-09-11 13:59:33,1565359
2025-09-11 13:59:33,1565414
2025-09-11 13:59:33,1565549
2025-09-11 13:59:33,1565576
2025-09-11 13:59:33,1565745
2025-09-11 13:59:33,1565928
2025-09-11 13:59:33,1566026
2025-09-11 13:59:33,1566167
2025-09-11 13:59:33,1566178
2025-09-11 13:59:33,1566311
2025-09-11 13:59:33,1566310
2025-09-11 13:59:33,1566415
2025-09-11 13:59:33,1566353
2025-09-11 13:59:33,1566378
2025-09-11 13:59:33,1566437
2025-09-11 13:59:33,1566413
2025-09-11 13:59:33,1566464
2025-09-11 13:59:33,1566466
2025-09-11 13:59:33,1566525
2025-09-11 13:59:33,1566596
2025-09-11 13:59:33,1566726
2025-09-11 13:59:33,1566703
2025-09-11 13:59:33,1566854
2025-09-11 13:59:33,1567001
2025-09-11 13:59:33,1566997
2025-09-11 13:59:33,1567114
2025-09-11 13:59:33,1567281
2025-09-11 13:59:33,1567433
2025-09-11 13:59:33,1567542
2025-09-11 13:59:33,1567705
2025-09-11 13:59:33,1567839
2025-09-11 13:59:33,1568021
2025-09-11 13:59:33,1568036
2025-09-11 13:59:33,1568231
2025-09-11 13:59:33,1568454
2025-09-11 13:59:33,1568571
2025-09-11 13:59:33,1568744
2025-09-11 13:59:33,1568825
2025-09-11 13:59:33,1569104
2025-09-11 13:59:33,1569186
2025-09-11 13:59:33,1569325
2025-09-11 13:59:33,1569435
2025-09-11 13:59:33,1569719
2025-09-11 13:59:33,1569763
2025-09-11 13:59:33,1570002
2025-09-11 13:59:33,1570200
2025-09-11 13:59:33,1570256
2025-09-11 13:59:33,1570446
2025-09-11 13:59:33,1570462
2025-09-11 13:59:33,1570543
2025-09-11 13:59:33,1570301
2025-09-11 13:59:33,1569950
2025-09-11 13:59:33,1569397
2025-09-11 13:59:33,1568757
2025-09-11 13:59:33,1568078
2025-09-11 13:59:33,1567323
2025-09-11 13:59:33,1566736
2025-09-11 13:59:33,1566233
2025-09-11 13:59:33,1565817
2025-09-11 13:59:33,1565479
2025-09-11 13:59:33,1565307
2025-09-11 13:59:33,1565172
2025-09-11 13:59:33,1565014
2025-09-11 13:59:33,1564905
2025-09-11 13:59:33,1564848
2025-09-11 13:59:33,1564815
2025-09-11 13:59:33,1564784
2025-09-11 13:59:33,1564853
2025-09-11 13:59:33,1564713
2025-09-11 13:59:33,1564622
2025-09-11 13:59:33,1564775
2025-09-11 13:59:33,1564890
2025-09-11 13:59:33,1564866
2025-09-11 13:59:33,1564939
2025-09-11 13:59:33,1565013
2025-09-11 13:59:33,1565122
2025-09-11 13:59:33,1565325
2025-09-11 13:59:33,1565392
2025-09-11 13:59:33,1565555
2025-09-11 13:59:33,1565670
2025-09-11 13:59:33,1565701
2025-09-11 13:59:34,1565788
2025-09-11 13:59:34,1565919
2025-09-11 13:59:34,1565831
2025-09-11 13:59:34,1565940
2025-09-11 13:59:34,1566014
2025-09-11 13:59:34,1565962
2025-09-11 13:59:34,1566036
2025-09-11 13:59:34,1566065
2025-09-11 13:59:34,1566122
2025-09-11 13:59:34,1566101
2025-09-11 13:59:34,1566267
2025-09-11 13:59:34,1566251
2025-09-11 13:59:34,1566444
2025-09-11 13:59:34,1566464
2025-09-11 13:59:34,1566500
2025-09-11 13:59:34,1566660
2025-09-11 13:59:34,1566832
2025-09-11 13:59:34,1566953
2025-09-11 13:59:34,1567039
2025-09-11 13:59:34,1567128
2025-09-11 13:59:34,1567387
2025-09-11 13:59:34,1567612
2025-09-11 13:59:34,1567607
2025-09-11 13:59:34,1567838
2025-09-11 13:59:34,1567976
2025-09-11 13:59:34,1568089
2025-09-11 13:59:34,1568281
2025-09-11 13:59:34,1568489
2025-09-11 13:59:34,1568639
2025-09-11 13:59:34,1568789
2025-09-11 13:59:34,1568815
2025-09-11 13:59:34,1569011
2025-09-11 13:59:34,1569151
2025-09-11 13:59:34,1569363
2025-09-11 13:59:34,1569473
2025-09-11 13:59:34,1569586
2025-09-11 13:59:34,1569830
2025-09-11 13:59:34,1570051
2025-09-11 13:59:34,1570148
2025-09-11 13:59:34,1570329
2025-09-11 13:59:34,1570368
2025-09-11 13:59:34,1570472
2025-09-11 13:59:34,1570369
2025-09-11 13:59:34,1570123
2025-09-11 13:59:34,1569616
2025-09-11 13:59:34,1568974
2025-09-11 13:59:34,1568371
2025-09-11 13:59:34,1567579
2025-09-11 13:59:34,1566989
2025-09-11 13:59:34,1566425
2025-09-11 13:59:34,1565873
2025-09-11 13:59:34,1565544
2025-09-11 13:59:34,1565179
2025-09-11 13:59:34,1565055
2025-09-11 13:59:34,1564893
2025-09-11 13:59:34,1564795
2025-09-11 13:59:34,1564704
2025-09-11 13:59:34,1564694
2025-09-11 13:59:34,1564602
2025-09-11 13:59:34,1564562
2025-09-11 13:59:34,1564526
2025-09-11 13:59:34,1564514
2025-09-11 13:59:34,1564588
2025-09-11 13:59:34,1564595
2025-09-11 13:59:34,1564611
2025-09-11 13:59:34,1564663
2025-09-11 13:59:34,1564803
2025-09-11 13:59:34,1564922
2025-09-11 13:59:34,1564974
2025-09-11 13:59:34,1565137
2025-09-11 13:59:34,1565298
2025-09-11 13:59:34,1565400
2025-09-11 13:59:34,1565452
2025-09-11 13:59:34,1565524
2025-09-11 13:59:34,1565562
2025-09-11 13:59:34,1565744
2025-09-11 13:59:34,1565751
2025-09-11 13:59:34,1565778
2025-09-11 13:59:34,1565796
2025-09-11 13:59:34,1565830
2025-09-11 13:59:34,1565905
2025-09-11 13:59:34,1565931
2025-09-11 13:59:34,1566045
2025-09-11 13:59:34,1566008
2025-09-11 13:59:34,1566087
2025-09-11 13:59:34,1566136
2025-09-11 13:59:34,1566255
2025-09-11 13:59:34,1566298
2025-09-11 13:59:34,1566475
2025-09-11 13:59:34,1566586
2025-09-11 13:59:34,1566693
2025-09-11 13:59:34,1566871
2025-09-11 13:59:34,1566890
2025-09-11 13:59:34,1567092
2025-09-11 13:59:34,1567229
2025-09-11 13:59:34,1567461
2025-09-11 13:59:34,1567649
2025-09-11 13:59:34,1567753
2025-09-11 13:59:34,1567905
2025-09-11 13:59:34,1567997
2025-09-11 13:59:35,1568231
2025-09-11 13:59:35,1568291
2025-09-11 13:59:35,1568451
2025-09-11 13:59:35,1568635
2025-09-11 13:59:35,1568788
2025-09-11 13:59:35,1568940
2025-09-11 13:59:35,1569107
2025-09-11 13:59:35,1569231
2025-09-11 13:59:35,1569430
2025-09-11 13:59:35,1569642
2025-09-11 13:59:35,1569788
2025-09-11 13:59:35,1569884
2025-09-11 13:59:35,1570038
2025-09-11 13:59:35,1570225
2025-09-11 13:59:35,1570305
2025-09-11 13:59:35,1570254
2025-09-11 13:59:35,1570168
2025-09-11 13:59:35,1569750
2025-09-11 13:59:35,1569222
2025-09-11 13:59:35,1568611
2025-09-11 13:59:35,1567792
2025-09-11 13:59:35,1567175
2025-09-11 13:59:35,1566476
2025-09-11 13:59:35,1565923
2025-09-11 13:59:35,1565483
2025-09-11 13:59:35,1565160
2025-09-11 13:59:35,1565031
2025-09-11 13:59:35,1564740
2025-09-11 13:59:35,1564598
2025-09-11 13:59:35,1564560
2025-09-11 13:59:35,1564384
2025-09-11 13:59:35,1564349
2025-09-11 13:59:35,1564465
2025-09-11 13:59:35,1564333
2025-09-11 13:59:35,1564320
2025-09-11 13:59:35,1564326
2025-09-11 13:59:35,1564375
2025-09-11 13:59:35,1564492
2025-09-11 13:59:35,1564542
2025-09-11 13:59:35,1564611
2025-09-11 13:59:35,1564690
2025-09-11 13:59:35,1564794
2025-09-11 13:59:35,1564939
2025-09-11 13:59:35,1565071
2025-09-11 13:59:35,1565204
2025-09-11 13:59:35,1565319
2025-09-11 13:59:35,1565480
2025-09-11 13:59:35,1565543
2025-09-11 13:59:35,1565600
2025-09-11 13:59:35,1565679
2025-09-11 13:59:35,1565728
2025-09-11 13:59:35,1565738
2025-09-11 13:59:35,1565835
2025-09-11 13:59:35,1565806
2025-09-11 13:59:35,1565980
2025-09-11 13:59:35,1565930
2025-09-11 13:59:35,1566082
2025-09-11 13:59:35,1566074
2025-09-11 13:59:35,1566310
2025-09-11 13:59:35,1566283
2025-09-11 13:59:35,1566419
2025-09-11 13:59:35,1566537
2025-09-11 13:59:35,1566649
2025-09-11 13:59:35,1566848
2025-09-11 13:59:35,1566860
2025-09-11 13:59:35,1567081
2025-09-11 13:59:35,1567269
2025-09-11 13:59:35,1567433
2025-09-11 13:59:35,1567625
2025-09-11 13:59:35,1567751
2025-09-11 13:59:35,1567923
2025-09-11 13:59:35,1567991
2025-09-11 13:59:35,1568209
2025-09-11 13:59:35,1568460
2025-09-11 13:59:35,1568558
2025-09-11 13:59:35,1568757
2025-09-11 13:59:35,1568906
2025-09-11 13:59:35,1569089
2025-09-11 13:59:35,1569190
2025-09-11 13:59:35,1569355
2025-09-11 13:59:35,1569489
2025-09-11 13:59:35,1569625
2025-09-11 13:59:35,1569852
2025-09-11 13:59:35,1570057
2025-09-11 13:59:35,1570216
2025-09-11 13:59:35,1570369
2025-09-11 13:59:35,1570433
2025-09-11 13:59:35,1570597
2025-09-11 13:59:35,1570685
2025-09-11 13:59:35,1570531
2025-09-11 13:59:35,1570279
2025-09-11 13:59:35,1569752
2025-09-11 13:59:35,1569165
2025-09-11 13:59:35,1568373
2025-09-11 13:59:35,1567693
2025-09-11 13:59:35,1567097
2025-09-11 13:59:35,1566443
2025-09-11 13:59:35,1565977
2025-09-11 13:59:35,1565617
2025-09-11 13:59:35,1565370
2025-09-11 13:59:35,1565123
2025-09-11 13:59:36,1565131
2025-09-11 13:59:36,1564942
2025-09-11 13:59:36,1564896
2025-09-11 13:59:36,1564808
2025-09-11 13:59:36,1564821
2025-09-11 13:59:36,1564848
2025-09-11 13:59:36,1564770
2025-09-11 13:59:36,1564835
2025-09-11 13:59:36,1564882
2025-09-11 13:59:36,1564965
2025-09-11 13:59:36,1565019
2025-09-11 13:59:36,1565048
2025-09-11 13:59:36,1565087
2025-09-11 13:59:36,1565227
2025-09-11 13:59:36,1565451
2025-09-11 13:59:36,1565613
2025-09-11 13:59:36,1565683
2025-09-11 13:59:36,1565810
2025-09-11 13:59:36,1565946
2025-09-11 13:59:36,1565999
2025-09-11 13:59:36,1566137
2025-09-11 13:59:36,1566147
2025-09-11 13:59:36,1566137
2025-09-11 13:59:36,1566256
2025-09-11 13:59:36,1566185
2025-09-11 13:59:36,1566256
2025-09-11 13:59:36,1566239
2025-09-11 13:59:36,1566350
2025-09-11 13:59:36,1566361
2025-09-11 13:59:36,1566479
2025-09-11 13:59:36,1566548
2025-09-11 13:59:36,1566530
2025-09-11 13:59:36,1566691
2025-09-11 13:59:36,1566888
2025-09-11 13:59:36,1566960
2025-09-11 13:59:36,1567114
2025-09-11 13:59:36,1567216
2025-09-11 13:59:36,1567429
2025-09-11 13:59:36,1567579
2025-09-11 13:59:36,1567674
2025-09-11 13:59:36,1567850
2025-09-11 13:59:36,1567986
2025-09-11 13:59:36,1568073
2025-09-11 13:59:36,1568329
2025-09-11 13:59:36,1568443
2025-09-11 13:59:36,1568605
2025-09-11 13:59:36,1568706
2025-09-11 13:59:36,1568966
2025-09-11 13:59:36,1569002
2025-09-11 13:59:36,1569255
2025-09-11 13:59:36,1569345
2025-09-11 13:59:36,1569601
2025-09-11 13:59:36,1569724
2025-09-11 13:59:36,1569857
2025-09-11 13:59:36,1570054
2025-09-11 13:59:36,1570224
2025-09-11 13:59:36,1570241
2025-09-11 13:59:36,1570407
2025-09-11 13:59:36,1570317
2025-09-11 13:59:36,1570151
2025-09-11 13:59:36,1569638
2025-09-11 13:59:36,1569097
2025-09-11 13:59:36,1568446
2025-09-11 13:59:36,1567721
2025-09-11 13:59:36,1567072
2025-09-11 13:59:36,1566480
2025-09-11 13:59:36,1565968
2025-09-11 13:59:36,1565630
2025-09-11 13:59:36,1565272
2025-09-11 13:59:36,1565037
2025-09-11 13:59:36,1564827
2025-09-11 13:59:36,1564765
2025-09-11 13:59:36,1564633
2025-09-11 13:59:36,1564631
2025-09-11 13:59:36,1564613
2025-09-11 13:59:36,1564559
2025-09-11 13:59:36,1564534
2025-09-11 13:59:36,1564619
2025-09-11 13:59:36,1564564
2025-09-11 13:59:36,1564646
2025-09-11 13:59:36,1564602
2025-09-11 13:59:36,1564681
2025-09-11 13:59:36,1564779
2025-09-11 13:59:36,1564850
2025-09-11 13:59:36,1565070
2025-09-11 13:59:36,1565211
2025-09-11 13:59:36,1565271
2025-09-11 13:59:36,1565374
2025-09-11 13:59:36,1565537
2025-09-11 13:59:36,1565589
2025-09-11 13:59:36,1565722
2025-09-11 13:59:36,1565722
2025-09-11 13:59:36,1565698
2025-09-11 13:59:36,1565796
2025-09-11 13:59:36,1565779
2025-09-11 13:59:36,1565755
2025-09-11 13:59:36,1565781
2025-09-11 13:59:36,1565882
2025-09-11 13:59:36,1565971
2025-09-11 13:59:36,1565894
2025-09-11 13:59:37,1565954
2025-09-11 13:59:37,1566109
2025-09-11 13:59:37,1566138
2025-09-11 13:59:37,1566233
2025-09-11 13:59:37,1566395
2025-09-11 13:59:37,1566421
2025-09-11 13:59:37,1566689
2025-09-11 13:59:37,1566734
2025-09-11 13:59:37,1566965
2025-09-11 13:59:37,1567154
2025-09-11 13:59:37,1567178
2025-09-11 13:59:37,1567320
2025-09-11 13:59:37,1567401
2025-09-11 13:59:37,1567608
2025-09-11 13:59:37,1567636
2025-09-11 13:59:37,1567808
2025-09-11 13:59:37,1568092
2025-09-11 13:59:37,1568130
2025-09-11 13:59:37,1568350
2025-09-11 13:59:37,1568418
2025-09-11 13:59:37,1568631
2025-09-11 13:59:37,1568840
2025-09-11 13:59:37,1568889
2025-09-11 13:59:37,1569052
2025-09-11 13:59:37,1569198
2025-09-11 13:59:37,1569309
2025-09-11 13:59:37,1569179
2025-09-11 13:59:37,1568988
2025-09-11 13:59:37,1568551
2025-09-11 13:59:37,1567974
2025-09-11 13:59:37,1567270
2025-09-11 13:59:37,1566544
2025-09-11 13:59:37,1565898
2025-09-11 13:59:37,1565353
2025-09-11 13:59:37,1564819
2025-09-11 13:59:37,1564433
2025-09-11 13:59:37,1564166
2025-09-11 13:59:37,1563857
2025-09-11 13:59:37,1563782
2025-09-11 13:59:37,1563681
2025-09-11 13:59:37,1563622
2025-09-11 13:59:37,1563454
2025-09-11 13:59:37,1563548
2025-09-11 13:59:37,1563343
2025-09-11 13:59:37,1563404
2025-09-11 13:59:37,1563293
2025-09-11 13:59:37,1563343
2025-09-11 13:59:37,1563415
2025-09-11 13:59:37,1563448
2025-09-11 13:59:37,1563557
2025-09-11 13:59:37,1563633
2025-09-11 13:59:37,1563798
2025-09-11 13:59:37,1563839
2025-09-11 13:59:37,1564006
2025-09-11 13:59:37,1564091
2025-09-11 13:59:37,1564208
2025-09-11 13:59:37,1564289
2025-09-11 13:59:37,1564363
2025-09-11 13:59:37,1564474
2025-09-11 13:59:37,1564470
2025-09-11 13:59:37,1564534
2025-09-11 13:59:37,1564559
2025-09-11 13:59:37,1564648
2025-09-11 13:59:28,1564605
2025-09-11 13:59:37,1564554
2025-09-11 13:59:37,1564717
2025-09-11 13:59:37,1564632
2025-09-11 13:59:37,1564779
2025-09-11 13:59:37,1564817
2025-09-11 13:59:37,1564885
2025-09-11 13:59:37,1564893
2025-09-11 13:59:37,1565083
2025-09-11 13:59:37,1565139
2025-09-11 13:59:37,1565290
2025-09-11 13:59:37,1565400
2025-09-11 13:59:37,1565533
2025-09-11 13:59:37,1565681
2025-09-11 13:59:37,1565716
2025-09-11 13:59:37,1565960
2025-09-11 13:59:37,1566050
2025-09-11 13:59:37,1566167
2025-09-11 13:59:37,1566378
2025-09-11 13:59:37,1566484
2025-09-11 13:59:37,1566538
2025-09-11 13:59:37,1566780
2025-09-11 13:59:37,1566919
2025-09-11 13:59:37,1566985
2025-09-11 13:59:37,1567137
2025-09-11 13:59:37,1567330
2025-09-11 13:59:37,1567472
2025-09-11 13:59:37,1567689
2025-09-11 13:59:37,1567823
2025-09-11 13:59:37,1567908
2025-09-11 13:59:37,1568015
2025-09-11 13:59:37,1568144
2025-09-11 13:59:37,1568006
2025-09-11 13:59:37,1567737
2025-09-11 13:59:37,1567237
2025-09-11 13:59:37,1566667
2025-09-11 13:59:37,1565934
2025-09-11 13:59:38,1565272
2025-09-11 13:59:38,1564536
2025-09-11 13:59:38,1563911
2025-09-11 13:59:38,1563415
2025-09-11 13:59:38,1563110
2025-09-11 13:59:38,1562760
2025-09-11 13:59:38,1562626
2025-09-11 13:59:38,1562424
2025-09-11 13:59:38,1562276
2025-09-11 13:59:38,1562281
2025-09-11 13:59:38,1562187
2025-09-11 13:59:38,1562165
2025-09-11 13:59:38,1562076
2025-09-11 13:59:38,1562099
2025-09-11 13:59:38,1561977
2025-09-11 13:59:38,1562095
2025-09-11 13:59:38,1562064
2025-09-11 13:59:38,1562101
2025-09-11 13:59:38,1562190
2025-09-11 13:59:38,1562247
2025-09-11 13:59:38,1562474
2025-09-11 13:59:38,1562531
2025-09-11 13:59:38,1562631
2025-09-11 13:59:38,1562761
2025-09-11 13:59:38,1562888
2025-09-11 13:59:38,1563107
2025-09-11 13:59:38,1563043
2025-09-11 13:59:38,1563139
2025-09-11 13:59:38,1563187
2025-09-11 13:59:38,1563235
2025-09-11 13:59:38,1563330
2025-09-11 13:59:38,1563413
2025-09-11 13:59:38,1563396
2025-09-11 13:59:38,1563355
2025-09-11 13:59:38,1563344
2025-09-11 13:59:38,1563514
2025-09-11 13:59:38,1563480
2025-09-11 13:59:38,1563615
2025-09-11 13:59:38,1563615
2025-09-11 13:59:38,1563816
2025-09-11 13:59:38,1563857
2025-09-11 13:59:38,1564006
2025-09-11 13:59:38,1564033
2025-09-11 13:59:38,1564198
2025-09-11 13:59:38,1564322
2025-09-11 13:59:38,1564516
2025-09-11 13:59:38,1564597
2025-09-11 13:59:38,1564826
2025-09-11 13:59:38,1565038
2025-09-11 13:59:38,1565167
2025-09-11 13:59:38,1565321
2025-09-11 13:59:38,1565421
2025-09-11 13:59:38,1565622
2025-09-11 13:59:38,1565703
2025-09-11 13:59:38,1566011
2025-09-11 13:59:38,1566046
2025-09-11 13:59:38,1566089
2025-09-11 13:59:38,1566422
2025-09-11 13:59:38,1566603
2025-09-11 13:59:38,1566746
2025-09-11 13:59:38,1566972
2025-09-11 13:59:38,1567086
2025-09-11 13:59:38,1567294
2025-09-11 13:59:38,1567347
2025-09-11 13:59:38,1567515
2025-09-11 13:59:38,1567672
2025-09-11 13:59:38,1567729
2025-09-11 13:59:38,1567609
2025-09-11 13:59:38,1567209
2025-09-11 13:59:38,1566728
2025-09-11 13:59:38,1566048
2025-09-11 13:59:38,1565387
2025-09-11 13:59:38,1564590
2025-09-11 13:59:38,1563936
2025-09-11 13:59:38,1563289
2025-09-11 13:59:38,1562851
2025-09-11 13:59:38,1562565
2025-09-11 13:59:38,1562259
2025-09-11 13:59:38,1562162
2025-09-11 13:59:38,1561915
2025-09-11 13:59:38,1561875
2025-09-11 13:59:38,1561841
2025-09-11 13:59:38,1561724
2025-09-11 13:59:38,1561687
2025-09-11 13:59:38,1561600
2025-09-11 13:59:38,1561559
2025-09-11 13:59:38,1561539
2025-09-11 13:59:38,1561482
2025-09-11 13:59:38,1561594
2025-09-11 13:59:38,1561724
2025-09-11 13:59:38,1561768
2025-09-11 13:59:38,1561873
2025-09-11 13:59:38,1561935
2025-09-11 13:59:38,1562067
2025-09-11 13:59:38,1562253
2025-09-11 13:59:38,1562384
2025-09-11 13:59:38,1562435
2025-09-11 13:59:38,1562487
2025-09-11 13:59:38,1562706
2025-09-11 13:59:38,1562701
2025-09-11 13:59:39,1562773
2025-09-11 13:59:39,1562800
2025-09-11 13:59:39,1562893
2025-09-11 13:59:39,1562838
2025-09-11 13:59:39,1562969
2025-09-11 13:59:39,1563009
2025-09-11 13:59:39,1562941
2025-09-11 13:59:39,1563078
2025-09-11 13:59:39,1563085
2025-09-11 13:59:39,1563119
2025-09-11 13:59:39,1563191
2025-09-11 13:59:39,1563387
2025-09-11 13:59:39,1563493
2025-09-11 13:59:39,1563568
2025-09-11 13:59:39,1563618
2025-09-11 13:59:39,1563791
2025-09-11 13:59:39,1563986
2025-09-11 13:59:39,1564090
2025-09-11 13:59:39,1564242
2025-09-11 13:59:39,1564324
2025-09-11 13:59:39,1564487
2025-09-11 13:59:39,1564804
2025-09-11 13:59:39,1564897
2025-09-11 13:59:39,1564987
2025-09-11 13:59:39,1565201
2025-09-11 13:59:39,1565357
2025-09-11 13:59:39,1565487
2025-09-11 13:59:39,1565730
2025-09-11 13:59:39,1565837
2025-09-11 13:59:39,1565964
2025-09-11 13:59:39,1566143
2025-09-11 13:59:39,1566344
2025-09-11 13:59:39,1566496
2025-09-11 13:59:39,1566734
2025-09-11 13:59:39,1566916
2025-09-11 13:59:39,1567051
2025-09-11 13:59:39,1567231
2025-09-11 13:59:39,1567214
2025-09-11 13:59:39,1567465
2025-09-11 13:59:39,1567439
2025-09-11 13:59:39,1567191
2025-09-11 13:59:39,1566719
2025-09-11 13:59:39,1566157
2025-09-11 13:59:39,1565441
2025-09-11 13:59:39,1564717
2025-09-11 13:59:39,1564031
2025-09-11 13:59:39,1563392
2025-09-11 13:59:39,1562934
2025-09-11 13:59:39,1562435
2025-09-11 13:59:39,1562090
2025-09-11 13:59:39,1561926
2025-09-11 13:59:39,1561717
2025-09-11 13:59:39,1561532
2025-09-11 13:59:39,1561514
2025-09-11 13:59:39,1561375
2025-09-11 13:59:39,1561396
2025-09-11 13:59:39,1561299
2025-09-11 13:59:39,1561295
2025-09-11 13:59:39,1561237
2025-09-11 13:59:39,1561320
2025-09-11 13:59:39,1561300
2025-09-11 13:59:39,1561382
2025-09-11 13:59:39,1561429
2025-09-11 13:59:39,1561505
2025-09-11 13:59:39,1561501
2025-09-11 13:59:39,1561731
2025-09-11 13:59:39,1561861
2025-09-11 13:59:39,1561991
2025-09-11 13:59:39,1562096
2025-09-11 13:59:39,1562216
2025-09-11 13:59:39,1562309
2025-09-11 13:59:39,1562410
2025-09-11 13:59:39,1562413
2025-09-11 13:59:39,1562471
2025-09-11 13:59:39,1562515
2025-09-11 13:59:39,1562571
2025-09-11 13:59:39,1562563
2025-09-11 13:59:39,1562671
2025-09-11 13:59:39,1562663
2025-09-11 13:59:39,1562705
2025-09-11 13:59:39,1562753
2025-09-11 13:59:39,1562844
2025-09-11 13:59:39,1562818
2025-09-11 13:59:39,1562999
2025-09-11 13:59:39,1563018
2025-09-11 13:59:39,1563149
2025-09-11 13:59:39,1563313
2025-09-11 13:59:39,1563426
2025-09-11 13:59:39,1563475
2025-09-11 13:59:39,1563672
2025-09-11 13:59:39,1563963
2025-09-11 13:59:39,1564038
2025-09-11 13:59:39,1564125
2025-09-11 13:59:39,1564299
2025-09-11 13:59:39,1564491
2025-09-11 13:59:39,1564635
2025-09-11 13:59:39,1564861
2025-09-11 13:59:39,1564931
2025-09-11 13:59:39,1564989
2025-09-11 13:59:39,1565285
2025-09-11 13:59:40,1565398
2025-09-11 13:59:40,1565516
2025-09-11 13:59:40,1565742
2025-09-11 13:59:40,1565900
2025-09-11 13:59:40,1565988
2025-09-11 13:59:40,1566227
2025-09-11 13:59:40,1566395
2025-09-11 13:59:40,1566628
2025-09-11 13:59:40,1566727
2025-09-11 13:59:40,1566839
2025-09-11 13:59:40,1566912
2025-09-11 13:59:40,1566942
2025-09-11 13:59:40,1566706
2025-09-11 13:59:40,1566376
2025-09-11 13:59:40,1565812
2025-09-11 13:59:40,1565028
2025-09-11 13:59:40,1564322
2025-09-11 13:59:40,1563602
2025-09-11 13:59:40,1562980
2025-09-11 13:59:40,1562464
2025-09-11 13:59:40,1561989
2025-09-11 13:59:40,1561696
2025-09-11 13:59:40,1561444
2025-09-11 13:59:40,1561258
2025-09-11 13:59:40,1561136
2025-09-11 13:59:40,1560966
2025-09-11 13:59:40,1560927
2025-09-11 13:59:40,1560913
2025-09-11 13:59:40,1560797
2025-09-11 13:59:40,1560708
2025-09-11 13:59:40,1560782
2025-09-11 13:59:40,1560761
2025-09-11 13:59:40,1560864
2025-09-11 13:59:40,1560854
2025-09-11 13:59:40,1560882
2025-09-11 13:59:40,1561017
2025-09-11 13:59:40,1561054
2025-09-11 13:59:40,1561109
2025-09-11 13:59:40,1561313
2025-09-11 13:59:40,1561468
2025-09-11 13:59:40,1561548
2025-09-11 13:59:40,1561729
2025-09-11 13:59:40,1561728
2025-09-11 13:59:40,1561793
2025-09-11 13:59:40,1561941
2025-09-11 13:59:40,1562050
2025-09-11 13:59:40,1562053
2025-09-11 13:59:40,1562125
2025-09-11 13:59:40,1562139
2025-09-11 13:59:40,1562199
2025-09-11 13:59:40,1562277
2025-09-11 13:59:40,1562184
2025-09-11 13:59:40,1562382
2025-09-11 13:59:40,1562458
2025-09-11 13:59:40,1562537
2025-09-11 13:59:40,1562614
2025-09-11 13:59:40,1562782
2025-09-11 13:59:40,1562871
2025-09-11 13:59:40,1562990
2025-09-11 13:59:40,1563107
2025-09-11 13:59:40,1563343
2025-09-11 13:59:40,1563489
2025-09-11 13:59:40,1563686
2025-09-11 13:59:40,1563826
2025-09-11 13:59:40,1563972
2025-09-11 13:59:40,1564064
2025-09-11 13:59:40,1564354
2025-09-11 13:59:40,1564542
2025-09-11 13:59:40,1564717
2025-09-11 13:59:40,1564920
2025-09-11 13:59:40,1565041
2025-09-11 13:59:40,1565230
2025-09-11 13:59:40,1565381
2025-09-11 13:59:40,1565598
2025-09-11 13:59:40,1565831
2025-09-11 13:59:40,1565948
2025-09-11 13:59:40,1566086
2025-09-11 13:59:40,1566273
2025-09-11 13:59:40,1566454
2025-09-11 13:59:40,1566594
2025-09-11 13:59:40,1566874
2025-09-11 13:59:40,1566955
2025-09-11 13:59:40,1567078
2025-09-11 13:59:40,1567126
2025-09-11 13:59:40,1567214
2025-09-11 13:59:40,1567078
2025-09-11 13:59:40,1566585
2025-09-11 13:59:40,1566077
2025-09-11 13:59:40,1565372
2025-09-11 13:59:40,1564617
2025-09-11 13:59:40,1563927
2025-09-11 13:59:40,1563238
2025-09-11 13:59:40,1562687
2025-09-11 13:59:40,1562228
2025-09-11 13:59:40,1561926
2025-09-11 13:59:40,1561718
2025-09-11 13:59:40,1561628
2025-09-11 13:59:40,1561422
2025-09-11 13:59:40,1561396
2025-09-11 13:59:40,1561325
2025-09-11 13:59:41,1561268
2025-09-11 13:59:41,1561281
2025-09-11 13:59:41,1561295
2025-09-11 13:59:41,1561305
2025-09-11 13:59:41,1561347
2025-09-11 13:59:41,1561449
2025-09-11 13:59:41,1561461
2025-09-11 13:59:41,1561600
2025-09-11 13:59:41,1561588
2025-09-11 13:59:41,1561745
2025-09-11 13:59:41,1561860
2025-09-11 13:59:41,1562014
2025-09-11 13:59:41,1562218
2025-09-11 13:59:41,1562235
2025-09-11 13:59:41,1562395
2025-09-11 13:59:41,1562492
2025-09-11 13:59:41,1562556
2025-09-11 13:59:41,1562623
2025-09-11 13:59:41,1562603
2025-09-11 13:59:41,1562746
2025-09-11 13:59:41,1562805
2025-09-11 13:59:41,1562773
2025-09-11 13:59:41,1562897
2025-09-11 13:59:41,1562871
2025-09-11 13:59:41,1562927
2025-09-11 13:59:41,1563009
2025-09-11 13:59:41,1563011
2025-09-11 13:59:41,1563175
2025-09-11 13:59:41,1563269
2025-09-11 13:59:41,1563377
2025-09-11 13:59:41,1563530
2025-09-11 13:59:41,1563677
2025-09-11 13:59:41,1563770
2025-09-11 13:59:41,1563981
2025-09-11 13:59:41,1564079
2025-09-11 13:59:41,1564223
2025-09-11 13:59:41,1564507
2025-09-11 13:59:41,1564547
2025-09-11 13:59:41,1564737
2025-09-11 13:59:41,1564906
2025-09-11 13:59:41,1565108
2025-09-11 13:59:41,1565243
2025-09-11 13:59:41,1565436
2025-09-11 13:59:41,1565607
2025-09-11 13:59:41,1565717
2025-09-11 13:59:41,1565843
2025-09-11 13:59:41,1566165
2025-09-11 13:59:41,1566241
2025-09-11 13:59:41,1566472
2025-09-11 13:59:41,1566599
2025-09-11 13:59:41,1566838
2025-09-11 13:59:41,1567037
2025-09-11 13:59:41,1567128
2025-09-11 13:59:41,1567248
2025-09-11 13:59:41,1567363
2025-09-11 13:59:41,1567347
2025-09-11 13:59:41,1567088
2025-09-11 13:59:41,1566821
2025-09-11 13:59:41,1566187
2025-09-11 13:59:41,1565468
2025-09-11 13:59:41,1564769
2025-09-11 13:59:41,1564078
2025-09-11 13:59:41,1563446
2025-09-11 13:59:41,1562823
2025-09-11 13:59:41,1562464
2025-09-11 13:59:41,1562078
2025-09-11 13:59:41,1561898
2025-09-11 13:59:41,1561633
2025-09-11 13:59:41,1561621
2025-09-11 13:59:41,1561496
2025-09-11 13:59:41,1561461
2025-09-11 13:59:41,1561399
2025-09-11 13:59:41,1561442
2025-09-11 13:59:41,1561359
2025-09-11 13:59:41,1561339
2025-09-11 13:59:41,1561380
2025-09-11 13:59:41,1561492
2025-09-11 13:59:41,1561415
2025-09-11 13:59:41,1561544
2025-09-11 13:59:41,1561612
2025-09-11 13:59:41,1561807
2025-09-11 13:59:41,1561878
2025-09-11 13:59:41,1562061
2025-09-11 13:59:41,1562175
2025-09-11 13:59:41,1562214
2025-09-11 13:59:41,1562340
2025-09-11 13:59:41,1562416
2025-09-11 13:59:41,1562568
2025-09-11 13:59:41,1562631
2025-09-11 13:59:41,1562587
2025-09-11 13:59:41,1562610
2025-09-11 13:59:41,1562698
2025-09-11 13:59:41,1562725
2025-09-11 13:59:41,1562698
2025-09-11 13:59:41,1562767
2025-09-11 13:59:41,1562738
2025-09-11 13:59:41,1562832
2025-09-11 13:59:41,1562859
2025-09-11 13:59:41,1563059
2025-09-11 13:59:41,1563119
2025-09-11 13:59:42,1563197
2025-09-11 13:59:42,1563272
2025-09-11 13:59:42,1563434
2025-09-11 13:59:42,1563574
2025-09-11 13:59:42,1563744
2025-09-11 13:59:42,1563821
2025-09-11 13:59:42,1564004
2025-09-11 13:59:42,1564146
2025-09-11 13:59:42,1564325
2025-09-11 13:59:42,1564410
2025-09-11 13:59:42,1564592
2025-09-11 13:59:42,1564755
2025-09-11 13:59:42,1564894
2025-09-11 13:59:42,1565037
2025-09-11 13:59:42,1565183
2025-09-11 13:59:42,1565252
2025-09-11 13:59:42,1565387
2025-09-11 13:59:42,1565592
2025-09-11 13:59:42,1565822
2025-09-11 13:59:42,1565978
2025-09-11 13:59:42,1566159
2025-09-11 13:59:42,1566264
2025-09-11 13:59:42,1566332
2025-09-11 13:59:42,1566440
2025-09-11 13:59:42,1566317
2025-09-11 13:59:42,1566089
2025-09-11 13:59:42,1565613
2025-09-11 13:59:42,1564976
2025-09-11 13:59:42,1564264
2025-09-11 13:59:42,1563518
2025-09-11 13:59:42,1562825
2025-09-11 13:59:42,1562102
2025-09-11 13:59:42,1561639
2025-09-11 13:59:42,1561277
2025-09-11 13:59:42,1560945
2025-09-11 13:59:42,1560742
2025-09-11 13:59:42,1560498
2025-09-11 13:59:42,1560497
2025-09-11 13:59:42,1560393
2025-09-11 13:59:42,1560316
2025-09-11 13:59:42,1560249
2025-09-11 13:59:42,1560168
2025-09-11 13:59:42,1560157
2025-09-11 13:59:42,1560169
2025-09-11 13:59:42,1560131
2025-09-11 13:59:42,1560154
2025-09-11 13:59:42,1560184
2025-09-11 13:59:42,1560274
2025-09-11 13:59:42,1560379
2025-09-11 13:59:42,1560548
2025-09-11 13:59:42,1560656
2025-09-11 13:59:42,1560727
2025-09-11 13:59:42,1560879
2025-09-11 13:59:42,1560972
2025-09-11 13:59:42,1561064
2025-09-11 13:59:42,1561297
2025-09-11 13:59:42,1561279
2025-09-11 13:59:42,1561337
2025-09-11 13:59:42,1561326
2025-09-11 13:59:42,1561420
2025-09-11 13:59:42,1561430
2025-09-11 13:59:42,1561393
2025-09-11 13:59:42,1561479
2025-09-11 13:59:42,1561524
2025-09-11 13:59:42,1561500
2025-09-11 13:59:42,1561595
2025-09-11 13:59:42,1561678
2025-09-11 13:59:42,1561759
2025-09-11 13:59:42,1561836
2025-09-11 13:59:42,1561917
2025-09-11 13:59:42,1562094
2025-09-11 13:59:42,1562202
2025-09-11 13:59:42,1562347
2025-09-11 13:59:42,1562516
2025-09-11 13:59:42,1562670
2025-09-11 13:59:42,1562720
2025-09-11 13:59:42,1562964
2025-09-11 13:59:42,1563151
2025-09-11 13:59:42,1563306
2025-09-11 13:59:42,1563418
2025-09-11 13:59:42,1563515
2025-09-11 13:59:42,1563675
2025-09-11 13:59:42,1563870
2025-09-11 13:59:42,1564077
2025-09-11 13:59:42,1564170
2025-09-11 13:59:42,1564293
2025-09-11 13:59:42,1564455
2025-09-11 13:59:42,1564545
2025-09-11 13:59:42,1564859
2025-09-11 13:59:42,1565027
2025-09-11 13:59:42,1565219
2025-09-11 13:59:42,1565360
2025-09-11 13:59:42,1565474
2025-09-11 13:59:42,1565723
2025-09-11 13:59:42,1565566
2025-09-11 13:59:42,1565533
2025-09-11 13:59:42,1565232
2025-09-11 13:59:42,1564709
2025-09-11 13:59:42,1564017
2025-09-11 13:59:42,1563348
2025-09-11 13:59:43,1562534
2025-09-11 13:59:43,1561880
2025-09-11 13:59:43,1561340
2025-09-11 13:59:43,1560811
2025-09-11 13:59:43,1560508
2025-09-11 13:59:43,1560184
2025-09-11 13:59:43,1559970
2025-09-11 13:59:43,1559844
2025-09-11 13:59:43,1559698
2025-09-11 13:59:43,1559697
2025-09-11 13:59:43,1559631
2025-09-11 13:59:43,1559548
2025-09-11 13:59:43,1559539
2025-09-11 13:59:43,1559504
2025-09-11 13:59:43,1559471
2025-09-11 13:59:43,1559498
2025-09-11 13:59:43,1559510
2025-09-11 13:59:43,1559698
2025-09-11 13:59:43,1559632
2025-09-11 13:59:43,1559679
2025-09-11 13:59:43,1559850
2025-09-11 13:59:43,1559949
2025-09-11 13:59:43,1560101
2025-09-11 13:59:43,1560189
2025-09-11 13:59:43,1560340
2025-09-11 13:59:43,1560387
2025-09-11 13:59:43,1560481
2025-09-11 13:59:43,1560521
2025-09-11 13:59:43,1560545
2025-09-11 13:59:43,1560600
2025-09-11 13:59:43,1560585
2025-09-11 13:59:43,1560646
2025-09-11 13:59:43,1560684
2025-09-11 13:59:43,1560719
2025-09-11 13:59:43,1560751
2025-09-11 13:59:43,1560827
2025-09-11 13:59:43,1560781
2025-09-11 13:59:43,1560916
2025-09-11 13:59:43,1560990
2025-09-11 13:59:43,1561064
2025-09-11 13:59:43,1561079
2025-09-11 13:59:43,1561264
2025-09-11 13:59:43,1561375
2025-09-11 13:59:43,1561461
2025-09-11 13:59:43,1561594
2025-09-11 13:59:43,1561682
2025-09-11 13:59:43,1561882
2025-09-11 13:59:43,1562081
2025-09-11 13:59:43,1562230
2025-09-11 13:59:43,1562431
2025-09-11 13:59:43,1562594
2025-09-11 13:59:43,1562693
2025-09-11 13:59:43,1562971
2025-09-11 13:59:43,1563047
2025-09-11 13:59:43,1563224
2025-09-11 13:59:43,1563414
2025-09-11 13:59:43,1563542
2025-09-11 13:59:43,1563722
2025-09-11 13:59:43,1563951
2025-09-11 13:59:43,1564041
2025-09-11 13:59:43,1564193
2025-09-11 13:59:43,1564291
2025-09-11 13:59:43,1564493
2025-09-11 13:59:43,1564782
2025-09-11 13:59:43,1564914
2025-09-11 13:59:43,1565084
2025-09-11 13:59:43,1565141
2025-09-11 13:59:43,1565278
2025-09-11 13:59:43,1565362
2025-09-11 13:59:43,1565218
2025-09-11 13:59:43,1564716
2025-09-11 13:59:43,1564153
2025-09-11 13:59:43,1563562
2025-09-11 13:59:43,1562723
2025-09-11 13:59:43,1561932
2025-09-11 13:59:43,1561268
2025-09-11 13:59:43,1560651
2025-09-11 13:59:43,1560178
2025-09-11 13:59:43,1559926
2025-09-11 13:59:43,1559687
2025-09-11 13:59:43,1559489
2025-09-11 13:59:43,1559332
2025-09-11 13:59:43,1559210
2025-09-11 13:59:43,1559193
2025-09-11 13:59:43,1559098
2025-09-11 13:59:43,1559113
2025-09-11 13:59:43,1558998
2025-09-11 13:59:43,1559011
2025-09-11 13:59:43,1559049
2025-09-11 13:59:43,1559151
2025-09-11 13:59:43,1559087
2025-09-11 13:59:43,1559162
2025-09-11 13:59:43,1559208
2025-09-11 13:59:43,1559325
2025-09-11 13:59:43,1559504
2025-09-11 13:59:43,1559569
2025-09-11 13:59:43,1559734
2025-09-11 13:59:43,1559832
2025-09-11 13:59:43,1559918
2025-09-11 13:59:43,1559978
2025-09-11 13:59:43,1560110
2025-09-11 13:59:44,1560186
2025-09-11 13:59:44,1560262
2025-09-11 13:59:44,1560292
2025-09-11 13:59:44,1560397
2025-09-11 13:59:44,1560389
2025-09-11 13:59:44,1560353
2025-09-11 13:59:44,1560443
2025-09-11 13:59:44,1560483
2025-09-11 13:59:44,1560441
2025-09-11 13:59:44,1560626
2025-09-11 13:59:44,1560659
2025-09-11 13:59:44,1560691
2025-09-11 13:59:44,1560833
2025-09-11 13:59:44,1560897
2025-09-11 13:59:44,1561054
2025-09-11 13:59:44,1561161
2025-09-11 13:59:44,1561310
2025-09-11 13:59:44,1561463
2025-09-11 13:59:44,1561576
2025-09-11 13:59:44,1561775
2025-09-11 13:59:44,1561955
2025-09-11 13:59:44,1562154
2025-09-11 13:59:44,1562256
2025-09-11 13:59:44,1562452
2025-09-11 13:59:44,1562609
2025-09-11 13:59:44,1562697
2025-09-11 13:59:44,1562927
2025-09-11 13:59:44,1563082
2025-09-11 13:59:44,1563234
2025-09-11 13:59:44,1563417
2025-09-11 13:59:44,1563592
2025-09-11 13:59:44,1563744
2025-09-11 13:59:44,1563911
2025-09-11 13:59:44,1564122
2025-09-11 13:59:44,1564295
2025-09-11 13:59:44,1564437
2025-09-11 13:59:44,1564662
2025-09-11 13:59:44,1564811
2025-09-11 13:59:44,1564934
2025-09-11 13:59:44,1565070
2025-09-11 13:59:44,1565199
2025-09-11 13:59:44,1565210
2025-09-11 13:59:44,1565042
2025-09-11 13:59:44,1564716
2025-09-11 13:59:44,1564068
2025-09-11 13:59:44,1563343
2025-09-11 13:59:44,1562596
2025-09-11 13:59:44,1561833
2025-09-11 13:59:44,1561099
2025-09-11 13:59:44,1560564
2025-09-11 13:59:44,1560108
2025-09-11 13:59:44,1559841
2025-09-11 13:59:44,1559502
2025-09-11 13:59:44,1559322
2025-09-11 13:59:44,1559242
2025-09-11 13:59:44,1559099
2025-09-11 13:59:44,1559041
2025-09-11 13:59:44,1559013
2025-09-11 13:59:44,1558966
2025-09-11 13:59:44,1558944
2025-09-11 13:59:44,1558931
2025-09-11 13:59:44,1558925
2025-09-11 13:59:44,1558885
2025-09-11 13:59:44,1559045
2025-09-11 13:59:44,1559105
2025-09-11 13:59:44,1559105
2025-09-11 13:59:44,1559263
2025-09-11 13:59:44,1559382
2025-09-11 13:59:44,1559482
2025-09-11 13:59:44,1559629
2025-09-11 13:59:44,1559676
2025-09-11 13:59:44,1559881
2025-09-11 13:59:44,1559976
2025-09-11 13:59:44,1560046
2025-09-11 13:59:44,1560083
2025-09-11 13:59:44,1560164
2025-09-11 13:59:44,1560231
2025-09-11 13:59:44,1560328
2025-09-11 13:59:44,1560266
2025-09-11 13:59:44,1560343
2025-09-11 13:59:44,1560372
2025-09-11 13:59:44,1560359
2025-09-11 13:59:44,1560417
2025-09-11 13:59:44,1560566
2025-09-11 13:59:44,1560640
2025-09-11 13:59:44,1560770
2025-09-11 13:59:44,1560754
2025-09-11 13:59:44,1561005
2025-09-11 13:59:44,1561174
2025-09-11 13:59:44,1561241
2025-09-11 13:59:44,1561341
2025-09-11 13:59:44,1561580
2025-09-11 13:59:44,1561713
2025-09-11 13:59:44,1561861
2025-09-11 13:59:44,1562058
2025-09-11 13:59:44,1562246
2025-09-11 13:59:44,1562395
2025-09-11 13:59:44,1562670
2025-09-11 13:59:44,1562794
2025-09-11 13:59:45,1563001
2025-09-11 13:59:45,1563205
2025-09-11 13:59:45,1563400
2025-09-11 13:59:45,1563494
2025-09-11 13:59:45,1563749
2025-09-11 13:59:45,1563883
2025-09-11 13:59:45,1564100
2025-09-11 13:59:45,1564336
2025-09-11 13:59:45,1564424
2025-09-11 13:59:45,1564719
2025-09-11 13:59:45,1564865
2025-09-11 13:59:45,1565046
2025-09-11 13:59:45,1565172
2025-09-11 13:59:45,1565318
2025-09-11 13:59:45,1565305
2025-09-11 13:59:45,1565220
2025-09-11 13:59:45,1564906
2025-09-11 13:59:45,1564282
2025-09-11 13:59:45,1563642
2025-09-11 13:59:45,1562794
2025-09-11 13:59:45,1562052
2025-09-11 13:59:45,1561380
2025-09-11 13:59:45,1560775
2025-09-11 13:59:45,1560407
2025-09-11 13:59:45,1560025
2025-09-11 13:59:45,1559780
2025-09-11 13:59:45,1559559
2025-09-11 13:59:45,1559530
2025-09-11 13:59:45,1559488
2025-09-11 13:59:45,1559363
2025-09-11 13:59:45,1559439
2025-09-11 13:59:45,1559411
2025-09-11 13:59:45,1559335
2025-09-11 13:59:45,1559468
2025-09-11 13:59:45,1559345
2025-09-11 13:59:45,1559469
2025-09-11 13:59:45,1559479
2025-09-11 13:59:45,1559556
2025-09-11 13:59:45,1559712
2025-09-11 13:59:45,1559818
2025-09-11 13:59:45,1559956
2025-09-11 13:59:45,1560113
2025-09-11 13:59:45,1560366
2025-09-11 13:59:45,1560417
2025-09-11 13:59:45,1560485
2025-09-11 13:59:45,1560624
2025-09-11 13:59:45,1560670
2025-09-11 13:59:45,1560760
2025-09-11 13:59:45,1560811
2025-09-11 13:59:45,1560924
2025-09-11 13:59:45,1560898
2025-09-11 13:59:45,1560991
2025-09-11 13:59:45,1561046
2025-09-11 13:59:45,1561118
2025-09-11 13:59:45,1561132
2025-09-11 13:59:45,1561174
2025-09-11 13:59:45,1561264
2025-09-11 13:59:45,1561349
2025-09-11 13:59:45,1561484
2025-09-11 13:59:45,1561641
2025-09-11 13:59:45,1561643
2025-09-11 13:59:45,1561787
2025-09-11 13:59:45,1561893
2025-09-11 13:59:45,1562117
2025-09-11 13:59:45,1562208
2025-09-11 13:59:45,1562411
2025-09-11 13:59:45,1562497
2025-09-11 13:59:45,1562717
2025-09-11 13:59:45,1562969
2025-09-11 13:59:45,1563068
2025-09-11 13:59:45,1563270
2025-09-11 13:59:45,1563403
2025-09-11 13:59:45,1563557
2025-09-11 13:59:45,1563828
2025-09-11 13:59:45,1563893
2025-09-11 13:59:45,1564056
2025-09-11 13:59:45,1564158
2025-09-11 13:59:45,1564328
2025-09-11 13:59:45,1564601
2025-09-11 13:59:45,1564752
2025-09-11 13:59:45,1564953
2025-09-11 13:59:45,1565177
2025-09-11 13:59:45,1565247
2025-09-11 13:59:45,1565406
2025-09-11 13:59:45,1565424
2025-09-11 13:59:45,1565318
2025-09-11 13:59:45,1565106
2025-09-11 13:59:45,1564609
2025-09-11 13:59:45,1563940
2025-09-11 13:59:45,1563227
2025-09-11 13:59:45,1562496
2025-09-11 13:59:45,1561641
2025-09-11 13:59:45,1561192
2025-09-11 13:59:45,1560617
2025-09-11 13:59:45,1560233
2025-09-11 13:59:45,1559972
2025-09-11 13:59:45,1559730
2025-09-11 13:59:45,1559587
2025-09-11 13:59:45,1559441
2025-09-11 13:59:45,1559464
2025-09-11 13:59:46,1559383
2025-09-11 13:59:46,1559331
2025-09-11 13:59:46,1559382
2025-09-11 13:59:46,1559458
2025-09-11 13:59:46,1559463
2025-09-11 13:59:46,1559429
2025-09-11 13:59:46,1559562
2025-09-11 13:59:46,1559602
2025-09-11 13:59:46,1559583
2025-09-11 13:59:46,1559752
2025-09-11 13:59:46,1559846
2025-09-11 13:59:46,1560063
2025-09-11 13:59:46,1560204
2025-09-11 13:59:46,1560370
2025-09-11 13:59:46,1560525
2025-09-11 13:59:46,1560644
2025-09-11 13:59:46,1560730
2025-09-11 13:59:46,1560798
2025-09-11 13:59:46,1560940
2025-09-11 13:59:46,1560945
2025-09-11 13:59:46,1560895
2025-09-11 13:59:46,1560992
2025-09-11 13:59:46,1560952
2025-09-11 13:59:46,1561077
2025-09-11 13:59:46,1561025
2025-09-11 13:59:46,1561076
2025-09-11 13:59:46,1561166
2025-09-11 13:59:46,1561224
2025-09-11 13:59:46,1561246
2025-09-11 13:59:46,1561419
2025-09-11 13:59:46,1561538
2025-09-11 13:59:46,1561623
2025-09-11 13:59:46,1561745
2025-09-11 13:59:46,1561906
2025-09-11 13:59:46,1562014
2025-09-11 13:59:46,1562199
2025-09-11 13:59:46,1562387
2025-09-11 13:59:46,1562490
2025-09-11 13:59:46,1562680
2025-09-11 13:59:46,1562875
2025-09-11 13:59:46,1563030
2025-09-11 13:59:46,1563141
2025-09-11 13:59:46,1563302
2025-09-11 13:59:46,1563498
2025-09-11 13:59:46,1563618
2025-09-11 13:59:46,1563802
2025-09-11 13:59:46,1563948
2025-09-11 13:59:46,1564103
2025-09-11 13:59:46,1564333
2025-09-11 13:59:46,1564499
2025-09-11 13:59:46,1564647
2025-09-11 13:59:46,1564770
2025-09-11 13:59:46,1564853
2025-09-11 13:59:46,1564885
2025-09-11 13:59:46,1564721
2025-09-11 13:59:46,1564271
2025-09-11 13:59:46,1563643
2025-09-11 13:59:46,1562973
2025-09-11 13:59:46,1562204
2025-09-11 13:59:46,1561453
2025-09-11 13:59:46,1560761
2025-09-11 13:59:46,1560265
2025-09-11 13:59:46,1559753
2025-09-11 13:59:46,1559425
2025-09-11 13:59:46,1559221
2025-09-11 13:59:46,1558932
2025-09-11 13:59:46,1558840
2025-09-11 13:59:46,1558783
2025-09-11 13:59:46,1558732
2025-09-11 13:59:46,1558698
2025-09-11 13:59:46,1558593
2025-09-11 13:59:46,1558560
2025-09-11 13:59:46,1558598
2025-09-11 13:59:46,1558565
2025-09-11 13:59:46,1558611
2025-09-11 13:59:46,1558645
2025-09-11 13:59:46,1558615
2025-09-11 13:59:46,1558731
2025-09-11 13:59:46,1558860
2025-09-11 13:59:46,1558993
2025-09-11 13:59:46,1559080
2025-09-11 13:59:46,1559253
2025-09-11 13:59:46,1559393
2025-09-11 13:59:46,1559521
2025-09-11 13:59:46,1559558
2025-09-11 13:59:46,1559558
2025-09-11 13:59:46,1559599
2025-09-11 13:59:46,1559666
2025-09-11 13:59:46,1559741
2025-09-11 13:59:46,1559683
2025-09-11 13:59:46,1559696
2025-09-11 13:59:46,1559769
2025-09-11 13:59:46,1559830
2025-09-11 13:59:46,1559922
2025-09-11 13:59:46,1559894
2025-09-11 13:59:46,1559934
2025-09-11 13:59:46,1559982
2025-09-11 13:59:46,1560111
2025-09-11 13:59:46,1560120
2025-09-11 13:59:46,1560322
2025-09-11 13:59:46,1560421
2025-09-11 13:59:47,1560520
2025-09-11 13:59:47,1560669
2025-09-11 13:59:47,1560826
2025-09-11 13:59:47,1560956
2025-09-11 13:59:47,1561106
2025-09-11 13:59:47,1561326
2025-09-11 13:59:47,1561465
2025-09-11 13:59:47,1561617
2025-09-11 13:59:47,1561721
2025-09-11 13:59:47,1561811
2025-09-11 13:59:47,1561987
2025-09-11 13:59:47,1562151
2025-09-11 13:59:47,1562251
2025-09-11 13:59:47,1562453
2025-09-11 13:59:47,1562587
2025-09-11 13:59:47,1562792
2025-09-11 13:59:47,1562997
2025-09-11 13:59:47,1563114
2025-09-11 13:59:47,1563261
2025-09-11 13:59:47,1563439
2025-09-11 13:59:47,1563462
2025-09-11 13:59:47,1563471
2025-09-11 13:59:47,1563325
2025-09-11 13:59:47,1562910
2025-09-11 13:59:47,1562351
2025-09-11 13:59:47,1561625
2025-09-11 13:59:47,1560848
2025-09-11 13:59:47,1560051
2025-09-11 13:59:47,1559479
2025-09-11 13:59:47,1558814
2025-09-11 13:59:47,1558471
2025-09-11 13:59:47,1558114
2025-09-11 13:59:47,1557966
2025-09-11 13:59:47,1557681
2025-09-11 13:59:47,1557549
2025-09-11 13:59:47,1557498
2025-09-11 13:59:47,1557353
2025-09-11 13:59:47,1557408
2025-09-11 13:59:47,1557286
2025-09-11 13:59:47,1557323
2025-09-11 13:59:47,1557295
2025-09-11 13:59:47,1557267
2025-09-11 13:59:47,1557354
2025-09-11 13:59:47,1557279
2025-09-11 13:59:47,1557345
2025-09-11 13:59:47,1557392
2025-09-11 13:59:47,1557481
2025-09-11 13:59:47,1557583
2025-09-11 13:59:47,1557730
2025-09-11 13:59:47,1557934
2025-09-11 13:59:47,1558033
2025-09-11 13:59:47,1558114
2025-09-11 13:59:47,1558291
2025-09-11 13:59:47,1558283
2025-09-11 13:59:47,1558291
2025-09-11 13:59:47,1558447
2025-09-11 13:59:47,1558477
2025-09-11 13:59:47,1558421
2025-09-11 13:59:47,1558382
2025-09-11 13:59:47,1558502
2025-09-11 13:59:47,1558516
2025-09-11 13:59:47,1558555
2025-09-11 13:59:47,1558590
2025-09-11 13:59:47,1558792
2025-09-11 13:59:47,1558762
2025-09-11 13:59:47,1558796
2025-09-11 13:59:47,1558937
2025-09-11 13:59:47,1559066
2025-09-11 13:59:47,1559202
2025-09-11 13:59:47,1559341
2025-09-11 13:59:47,1559426
2025-09-11 13:59:47,1559610
2025-09-11 13:59:47,1559783
2025-09-11 13:59:47,1559941
2025-09-11 13:59:47,1560149
2025-09-11 13:59:47,1560239
2025-09-11 13:59:47,1560435
2025-09-11 13:59:47,1560673
2025-09-11 13:59:47,1560832
2025-09-11 13:59:47,1560989
2025-09-11 13:59:47,1561112
2025-09-11 13:59:47,1561311
2025-09-11 13:59:47,1561557
2025-09-11 13:59:47,1561568
2025-09-11 13:59:47,1561792
2025-09-11 13:59:47,1561907
2025-09-11 13:59:47,1562182
2025-09-11 13:59:47,1562369
2025-09-11 13:59:47,1562480
2025-09-11 13:59:47,1562739
2025-09-11 13:59:47,1562872
2025-09-11 13:59:47,1563018
2025-09-11 13:59:47,1563150
2025-09-11 13:59:47,1563263
2025-09-11 13:59:47,1563355
2025-09-11 13:59:47,1563262
2025-09-11 13:59:47,1562841
2025-09-11 13:59:47,1562370
2025-09-11 13:59:47,1561627
2025-09-11 13:59:47,1560941
2025-09-11 13:59:47,1560090
2025-09-11 13:59:48,1559321
2025-09-11 13:59:48,1558736
2025-09-11 13:59:48,1558194
2025-09-11 13:59:48,1557899
2025-09-11 13:59:48,1557579
2025-09-11 13:59:48,1557395
2025-09-11 13:59:48,1557274
2025-09-11 13:59:48,1557114
2025-09-11 13:59:48,1557149
2025-09-11 13:59:48,1557074
2025-09-11 13:59:48,1557028
2025-09-11 13:59:48,1556900
2025-09-11 13:59:48,1556971
2025-09-11 13:59:48,1556943
2025-09-11 13:59:48,1556937
2025-09-11 13:59:48,1557014
2025-09-11 13:59:48,1557072
2025-09-11 13:59:48,1557075
2025-09-11 13:59:48,1557173
2025-09-11 13:59:48,1557369
2025-09-11 13:59:48,1557481
2025-09-11 13:59:48,1557590
2025-09-11 13:59:48,1557844
2025-09-11 13:59:48,1557863
2025-09-11 13:59:48,1557927
2025-09-11 13:59:48,1558066
2025-09-11 13:59:48,1558038
2025-09-11 13:59:48,1558254
2025-09-11 13:59:48,1558168
2025-09-11 13:59:48,1558203
2025-09-11 13:59:48,1558258
2025-09-11 13:59:48,1558275
2025-09-11 13:59:48,1558309
2025-09-11 13:59:48,1558349
2025-09-11 13:59:48,1558564
2025-09-11 13:59:48,1558472
2025-09-11 13:59:48,1558508
2025-09-11 13:59:48,1558605
2025-09-11 13:59:48,1558695
2025-09-11 13:59:48,1558856
2025-09-11 13:59:48,1558964
2025-09-11 13:59:48,1559086
2025-09-11 13:59:48,1559185
2025-09-11 13:59:48,1559369
2025-09-11 13:59:48,1559519
2025-09-11 13:59:48,1559681
2025-09-11 13:59:48,1559838
2025-09-11 13:59:48,1559998
2025-09-11 13:59:48,1560223
2025-09-11 13:59:48,1560296
2025-09-11 13:59:48,1560500
2025-09-11 13:59:48,1560666
2025-09-11 13:59:48,1560801
2025-09-11 13:59:48,1561011
2025-09-11 13:59:48,1561157
2025-09-11 13:59:48,1561278
2025-09-11 13:59:48,1561402
2025-09-11 13:59:48,1561699
2025-09-11 13:59:48,1561810
2025-09-11 13:59:48,1562012
2025-09-11 13:59:48,1562163
2025-09-11 13:59:48,1562338
2025-09-11 13:59:48,1562570
2025-09-11 13:59:48,1562775
2025-09-11 13:59:48,1562878
2025-09-11 13:59:48,1563011
2025-09-11 13:59:48,1563113
2025-09-11 13:59:48,1563298
2025-09-11 13:59:48,1563234
2025-09-11 13:59:48,1562887
2025-09-11 13:59:48,1562478
2025-09-11 13:59:48,1561756
2025-09-11 13:59:48,1560897
2025-09-11 13:59:48,1560147
2025-09-11 13:59:48,1559429
2025-09-11 13:59:48,1558793
2025-09-11 13:59:48,1558287
2025-09-11 13:59:48,1557868
2025-09-11 13:59:48,1557497
2025-09-11 13:59:48,1557325
2025-09-11 13:59:48,1557164
2025-09-11 13:59:48,1557152
2025-09-11 13:59:48,1557007
2025-09-11 13:59:48,1556964
2025-09-11 13:59:48,1556963
2025-09-11 13:59:48,1556954
2025-09-11 13:59:48,1556893
2025-09-11 13:59:48,1556844
2025-09-11 13:59:48,1556859
2025-09-11 13:59:48,1556900
2025-09-11 13:59:48,1556972
2025-09-11 13:59:48,1557118
2025-09-11 13:59:48,1557069
2025-09-11 13:59:48,1557354
2025-09-11 13:59:48,1557398
2025-09-11 13:59:48,1557523
2025-09-11 13:59:48,1557617
2025-09-11 13:59:48,1557837
2025-09-11 13:59:48,1557950
2025-09-11 13:59:48,1557939
2025-09-11 13:59:49,1558072
2025-09-11 13:59:49,1558082
2025-09-11 13:59:49,1558150
2025-09-11 13:59:49,1558202
2025-09-11 13:59:49,1558198
2025-09-11 13:59:49,1558303
2025-09-11 13:59:49,1558278
2025-09-11 13:59:49,1558271
2025-09-11 13:59:49,1558367
2025-09-11 13:59:49,1558508
2025-09-11 13:59:49,1558510
2025-09-11 13:59:49,1558619
2025-09-11 13:59:49,1558713
2025-09-11 13:59:49,1558896
2025-09-11 13:59:49,1558800
2025-09-11 13:59:49,1558977
2025-09-11 13:59:49,1559188
2025-09-11 13:59:49,1559374
2025-09-11 13:59:49,1559398
2025-09-11 13:59:49,1559656
2025-09-11 13:59:49,1559837
2025-09-11 13:59:49,1559950
2025-09-11 13:59:49,1560079
2025-09-11 13:59:49,1560278
2025-09-11 13:59:49,1560364
2025-09-11 13:59:49,1560612
2025-09-11 13:59:49,1560771
2025-09-11 13:59:49,1560887
2025-09-11 13:59:49,1561036
2025-09-11 13:59:49,1561253
2025-09-11 13:59:49,1561469
2025-09-11 13:59:49,1561596
2025-09-11 13:59:49,1561742
2025-09-11 13:59:49,1562043
2025-09-11 13:59:49,1562119
2025-09-11 13:59:49,1562276
2025-09-11 13:59:49,1562395
2025-09-11 13:59:49,1562498
2025-09-11 13:59:49,1562393
2025-09-11 13:59:49,1562105
2025-09-11 13:59:49,1561606
2025-09-11 13:59:49,1561009
2025-09-11 13:59:49,1560234
2025-09-11 13:59:49,1559541
2025-09-11 13:59:49,1558786
2025-09-11 13:59:49,1558267
2025-09-11 13:59:49,1557747
2025-09-11 13:59:49,1557382
2025-09-11 13:59:49,1557098
2025-09-11 13:59:49,1556900
2025-09-11 13:59:49,1556776
2025-09-11 13:59:49,1556777
2025-09-11 13:59:49,1556569
2025-09-11 13:59:49,1556603
2025-09-11 13:59:49,1556582
2025-09-11 13:59:49,1556485
2025-09-11 13:59:49,1556563
2025-09-11 13:59:49,1556534
2025-09-11 13:59:49,1556557
2025-09-11 13:59:49,1556536
2025-09-11 13:59:46,1556646
2025-09-11 13:59:49,1556690
2025-09-11 13:59:49,1556718
2025-09-11 13:59:49,1556865
2025-09-11 13:59:49,1557052
2025-09-11 13:59:49,1557098
2025-09-11 13:59:49,1557182
2025-09-11 13:59:49,1557422
2025-09-11 13:59:49,1557397
2025-09-11 13:59:49,1557636
2025-09-11 13:59:49,1557659
2025-09-11 13:59:49,1557680
2025-09-11 13:59:49,1557744
2025-09-11 13:59:49,1557723
2025-09-11 13:59:49,1557828
2025-09-11 13:59:49,1557869
2025-09-11 13:59:49,1557852
2025-09-11 13:59:49,1557950
2025-09-11 13:59:49,1557947
2025-09-11 13:59:49,1558062
2025-09-11 13:59:49,1558057
2025-09-11 13:59:49,1558142
2025-09-11 13:59:49,1558200
2025-09-11 13:59:49,1558236
2025-09-11 13:59:49,1558424
2025-09-11 13:59:49,1558497
2025-09-11 13:59:49,1558694
2025-09-11 13:59:49,1558849
2025-09-11 13:59:49,1559093
2025-09-11 13:59:49,1559130
2025-09-11 13:59:49,1559291
2025-09-11 13:59:49,1559414
2025-09-11 13:59:49,1559617
2025-09-11 13:59:49,1559705
2025-09-11 13:59:49,1559948
2025-09-11 13:59:49,1560091
2025-09-11 13:59:49,1560309
2025-09-11 13:59:49,1560360
2025-09-11 13:59:49,1560596
2025-09-11 13:59:49,1560833
2025-09-11 13:59:50,1560965
2025-09-11 13:59:50,1561171
2025-09-11 13:59:50,1561182
2025-09-11 13:59:50,1561287
2025-09-11 13:59:50,1561177
2025-09-11 13:59:50,1560944
2025-09-11 13:59:50,1560489
2025-09-11 13:59:50,1559753
2025-09-11 13:59:50,1558998
2025-09-11 13:59:50,1558214
2025-09-11 13:59:50,1557605
2025-09-11 13:59:50,1557025
2025-09-11 13:59:50,1556674
2025-09-11 13:59:50,1556308
2025-09-11 13:59:50,1556145
2025-09-11 13:59:50,1555949
2025-09-11 13:59:50,1555824
2025-09-11 13:59:50,1555758
2025-09-11 13:59:50,1555666
2025-09-11 13:59:50,1555602
2025-09-11 13:59:50,1555610
2025-09-11 13:59:50,1555663
2025-09-11 13:59:50,1555651
2025-09-11 13:59:50,1555667
2025-09-11 13:59:50,1555707
2025-09-11 13:59:50,1555769
2025-09-11 13:59:50,1555763
2025-09-11 13:59:50,1555946
2025-09-11 13:59:50,1556029
2025-09-11 13:59:50,1556182
2025-09-11 13:59:50,1556272
2025-09-11 13:59:50,1556382
2025-09-11 13:59:50,1556567
2025-09-11 13:59:50,1556741
2025-09-11 13:59:50,1556746
2025-09-11 13:59:50,1556800
2025-09-11 13:59:50,1556905
2025-09-11 13:59:50,1556983
2025-09-11 13:59:50,1557059
2025-09-11 13:59:50,1557133
2025-09-11 13:59:50,1557205
2025-09-11 13:59:50,1557211
2025-09-11 13:59:50,1557247
2025-09-11 13:59:50,1557340
2025-09-11 13:59:50,1557453
2025-09-11 13:59:50,1557563
2025-09-11 13:59:50,1557669
2025-09-11 13:59:50,1557807
2025-09-11 13:59:50,1557861
2025-09-11 13:59:50,1557934
2025-09-11 13:59:50,1558083
2025-09-11 13:59:50,1558316
2025-09-11 13:59:50,1558505
2025-09-11 13:59:50,1558610
2025-09-11 13:59:50,1558839
2025-09-11 13:59:50,1559111
2025-09-11 13:59:50,1559251
2025-09-11 13:59:50,1559410
2025-09-11 13:59:50,1559616
2025-09-11 13:59:50,1559786
2025-09-11 13:59:50,1560002
2025-09-11 13:59:50,1560156
2025-09-11 13:59:50,1560272
2025-09-11 13:59:50,1560528
2025-09-11 13:59:50,1560779
2025-09-11 13:59:50,1560905
2025-09-11 13:59:50,1561094
2025-09-11 13:59:50,1561317
2025-09-11 13:59:50,1561525
2025-09-11 13:59:50,1561433
2025-09-11 13:59:50,1561424
2025-09-11 13:59:50,1560930
2025-09-11 13:59:50,1560364
2025-09-11 13:59:50,1559637
2025-09-11 13:59:50,1558925
2025-09-11 13:59:50,1558211
2025-09-11 13:59:50,1557576
2025-09-11 13:59:50,1557056
2025-09-11 13:59:50,1556629
2025-09-11 13:59:50,1556434
2025-09-11 13:59:50,1556314
2025-09-11 13:59:50,1556126
2025-09-11 13:59:50,1556131
2025-09-11 13:59:50,1556021
2025-09-11 13:59:50,1556015
2025-09-11 13:59:50,1555930
2025-09-11 13:59:50,1555935
2025-09-11 13:59:50,1555920
2025-09-11 13:59:50,1555998
2025-09-11 13:59:50,1555996
2025-09-11 13:59:50,1556124
2025-09-11 13:59:50,1556143
2025-09-11 13:59:50,1556219
2025-09-11 13:59:50,1556209
2025-09-11 13:59:50,1556466
2025-09-11 13:59:50,1556594
2025-09-11 13:59:50,1556720
2025-09-11 13:59:50,1556890
2025-09-11 13:59:50,1557039
2025-09-11 13:59:50,1557212
2025-09-11 13:59:51,1557214
2025-09-11 13:59:51,1557321
2025-09-11 13:59:51,1557420
2025-09-11 13:59:51,1557466
2025-09-11 13:59:51,1557491
2025-09-11 13:59:51,1557543
2025-09-11 13:59:51,1557626
2025-09-11 13:59:51,1557601
2025-09-11 13:59:51,1557644
2025-09-11 13:59:51,1557769
2025-09-11 13:59:51,1557804
2025-09-11 13:59:51,1557916
2025-09-11 13:59:51,1557996
2025-09-11 13:59:51,1558115
2025-09-11 13:59:51,1558264
2025-09-11 13:59:51,1558326
2025-09-11 13:59:51,1558539
2025-09-11 13:59:51,1558675
2025-09-11 13:59:51,1558815
2025-09-11 13:59:51,1559023
2025-09-11 13:59:51,1559122
2025-09-11 13:59:51,1559338
2025-09-11 13:59:51,1559502
2025-09-11 13:59:51,1559591
2025-09-11 13:59:51,1559830
2025-09-11 13:59:51,1560079
2025-09-11 13:59:51,1560155
2025-09-11 13:59:51,1560412
2025-09-11 13:59:51,1560613
2025-09-11 13:59:51,1560721
2025-09-11 13:59:51,1561057
2025-09-11 13:59:51,1561139
2025-09-11 13:59:51,1561417
2025-09-11 13:59:51,1561566
2025-09-11 13:59:51,1561598
2025-09-11 13:59:51,1561510
2025-09-11 13:59:51,1561317
2025-09-11 13:59:51,1560807
2025-09-11 13:59:51,1560244
2025-09-11 13:59:51,1559437
2025-09-11 13:59:51,1558767
2025-09-11 13:59:51,1558024
2025-09-11 13:59:51,1557413
2025-09-11 13:59:51,1556849
2025-09-11 13:59:51,1556529
2025-09-11 13:59:51,1556348
2025-09-11 13:59:51,1556135
2025-09-11 13:59:51,1556010
2025-09-11 13:59:51,1555884
2025-09-11 13:59:51,1555765
2025-09-11 13:59:51,1555738
2025-09-11 13:59:51,1555748
2025-09-11 13:59:51,1555669
2025-09-11 13:59:51,1555791
2025-09-11 13:59:51,1555740
2025-09-11 13:59:51,1555704
2025-09-11 13:59:51,1555868
2025-09-11 13:59:51,1555944
2025-09-11 13:59:51,1556005
2025-09-11 13:59:51,1556151
2025-09-11 13:59:51,1556299
2025-09-11 13:59:51,1556377
2025-09-11 13:59:51,1556588
2025-09-11 13:59:51,1556751
2025-09-11 13:59:51,1556752
2025-09-11 13:59:51,1556987
2025-09-11 13:59:51,1557068
2025-09-11 13:59:51,1557120
2025-09-11 13:59:51,1557209
2025-09-11 13:59:51,1557266
2025-09-11 13:59:51,1557178
2025-09-11 13:59:51,1557274
2025-09-11 13:59:51,1557263
2025-09-11 13:59:51,1557318
2025-09-11 13:59:51,1557342
2025-09-11 13:59:51,1557448
2025-09-11 13:59:51,1557494
2025-09-11 13:59:51,1557628
2025-09-11 13:59:51,1557702
2025-09-11 13:59:51,1557750
2025-09-11 13:59:51,1557840
2025-09-11 13:59:51,1557975
2025-09-11 13:59:51,1558111
2025-09-11 13:59:51,1558258
2025-09-11 13:59:51,1558472
2025-09-11 13:59:51,1558608
2025-09-11 13:59:51,1558796
2025-09-11 13:59:51,1558848
2025-09-11 13:59:51,1559011
2025-09-11 13:59:51,1559163
2025-09-11 13:59:51,1559383
2025-09-11 13:59:51,1559522
2025-09-11 13:59:51,1559663
2025-09-11 13:59:51,1559841
2025-09-11 13:59:51,1560008
2025-09-11 13:59:51,1560215
2025-09-11 13:59:51,1560321
2025-09-11 13:59:51,1560503
2025-09-11 13:59:51,1560634
2025-09-11 13:59:51,1560747
2025-09-11 13:59:52,1560693
2025-09-11 13:59:52,1560509
2025-09-11 13:59:52,1560039
2025-09-11 13:59:52,1559378
2025-09-11 13:59:52,1558747
2025-09-11 13:59:52,1557921
2025-09-11 13:59:52,1557117
2025-09-11 13:59:52,1556525
2025-09-11 13:59:52,1555947
2025-09-11 13:59:52,1555673
2025-09-11 13:59:52,1555386
2025-09-11 13:59:52,1555174
2025-09-11 13:59:52,1554965
2025-09-11 13:59:52,1554861
2025-09-11 13:59:52,1554794
2025-09-11 13:59:52,1554753
2025-09-11 13:59:52,1554698
2025-09-11 13:59:52,1554730
2025-09-11 13:59:52,1554677
2025-09-11 13:59:52,1554582
2025-09-11 13:59:52,1554638
2025-09-11 13:59:52,1554685
2025-09-11 13:59:52,1554714
2025-09-11 13:59:52,1554831
2025-09-11 13:59:52,1554797
2025-09-11 13:59:52,1554931
2025-09-11 13:59:52,1555106
2025-09-11 13:59:52,1555260
2025-09-11 13:59:52,1555371
2025-09-11 13:59:52,1555444
2025-09-11 13:59:52,1555528
2025-09-11 13:59:52,1555581
2025-09-11 13:59:52,1555757
2025-09-11 13:59:52,1555736
2025-09-11 13:59:52,1555748
2025-09-11 13:59:52,1555705
2025-09-11 13:59:52,1555739
2025-09-11 13:59:52,1555729
2025-09-11 13:59:52,1555713
2025-09-11 13:59:52,1555812
2025-09-11 13:59:52,1555830
2025-09-11 13:59:52,1555877
2025-09-11 13:59:52,1555928
2025-09-11 13:59:52,1556052
2025-09-11 13:59:52,1556146
2025-09-11 13:59:52,1556218
2025-09-11 13:59:52,1556237
2025-09-11 13:59:52,1556390
2025-09-11 13:59:52,1556466
2025-09-11 13:59:52,1556661
2025-09-11 13:59:52,1556763
2025-09-11 13:59:52,1556850
2025-09-11 13:59:52,1557017
2025-09-11 13:59:52,1557252
2025-09-11 13:59:52,1557400
2025-09-11 13:59:52,1557515
2025-09-11 13:59:52,1557611
2025-09-11 13:59:52,1557804
2025-09-11 13:59:52,1557935
2025-09-11 13:59:52,1558046
2025-09-11 13:59:52,1558278
2025-09-11 13:59:52,1558412
2025-09-11 13:59:52,1558611
2025-09-11 13:59:52,1558780
2025-09-11 13:59:52,1558967
2025-09-11 13:59:52,1559133
2025-09-11 13:59:52,1559053
2025-09-11 13:59:52,1558965
2025-09-11 13:59:52,1558695
2025-09-11 13:59:52,1557999
2025-09-11 13:59:52,1557305
2025-09-11 13:59:52,1556601
2025-09-11 13:59:52,1555857
2025-09-11 13:59:52,1555204
2025-09-11 13:59:52,1554795
2025-09-11 13:59:52,1554342
2025-09-11 13:59:52,1554125
2025-09-11 13:59:52,1553849
2025-09-11 13:59:52,1553713
2025-09-11 13:59:52,1553602
2025-09-11 13:59:52,1553492
2025-09-11 13:59:52,1553447
2025-09-11 13:59:52,1553443
2025-09-11 13:59:52,1553429
2025-09-11 13:59:52,1553386
2025-09-11 13:59:52,1553273
2025-09-11 13:59:52,1553411
2025-09-11 13:59:52,1553467
2025-09-11 13:59:52,1553484
2025-09-11 13:59:52,1553463
2025-09-11 13:59:52,1553693
2025-09-11 13:59:52,1553707
2025-09-11 13:59:52,1553866
2025-09-11 13:59:52,1554023
2025-09-11 13:59:52,1554109
2025-09-11 13:59:52,1554235
2025-09-11 13:59:52,1554309
2025-09-11 13:59:52,1554406
2025-09-11 13:59:52,1554514
2025-09-11 13:59:52,1554610
2025-09-11 13:59:53,1554674
2025-09-11 13:59:53,1554641
2025-09-11 13:59:53,1554729
2025-09-11 13:59:53,1554669
2025-09-11 13:59:53,1554715
2025-09-11 13:59:53,1554805
2025-09-11 13:59:53,1554884
2025-09-11 13:59:53,1554900
2025-09-11 13:59:53,1554962
2025-09-11 13:59:53,1555069
2025-09-11 13:59:53,1555163
2025-09-11 13:59:53,1555299
2025-09-11 13:59:53,1555389
2025-09-11 13:59:53,1555536
2025-09-11 13:59:53,1555693
2025-09-11 13:59:53,1555818
2025-09-11 13:59:53,1555982
2025-09-11 13:59:53,1556104
2025-09-11 13:59:53,1556260
2025-09-11 13:59:53,1556375
2025-09-11 13:59:53,1556640
2025-09-11 13:59:53,1556742
2025-09-11 13:59:53,1557020
2025-09-11 13:59:53,1557127
2025-09-11 13:59:53,1557300
2025-09-11 13:59:53,1557430
2025-09-11 13:59:53,1557622
2025-09-11 13:59:53,1557853
2025-09-11 13:59:53,1557948
2025-09-11 13:59:53,1558178
2025-09-11 13:59:53,1558357
2025-09-11 13:59:53,1558539
2025-09-11 13:59:53,1558708
2025-09-11 13:59:53,1558946
2025-09-11 13:59:53,1559077
2025-09-11 13:59:53,1559160
2025-09-11 13:59:53,1559299
2025-09-11 13:59:53,1559166
2025-09-11 13:59:53,1558725
2025-09-11 13:59:53,1558183
2025-09-11 13:59:53,1557431
2025-09-11 13:59:53,1556634
2025-09-11 13:59:53,1555832
2025-09-11 13:59:53,1555129
2025-09-11 13:59:53,1554710
2025-09-11 13:59:53,1554197
2025-09-11 13:59:53,1553942
2025-09-11 13:59:53,1553737
2025-09-11 13:59:53,1553605
2025-09-11 13:59:53,1553523
2025-09-11 13:59:53,1553377
2025-09-11 13:59:53,1553264
2025-09-11 13:59:53,1553228
2025-09-11 13:59:53,1553286
2025-09-11 13:59:53,1553180
2025-09-11 13:59:53,1553258
2025-09-11 13:59:53,1553194
2025-09-11 13:59:53,1553206
2025-09-11 13:59:53,1553257
2025-09-11 13:59:53,1553366
2025-09-11 13:59:53,1553315
2025-09-11 13:59:53,1553469
2025-09-11 13:59:53,1553581
2025-09-11 13:59:53,1553622
2025-09-11 13:59:53,1553892
2025-09-11 13:59:53,1554025
2025-09-11 13:59:53,1554113
2025-09-11 13:59:53,1554231
2025-09-11 13:59:53,1554244
2025-09-11 13:59:53,1554361
2025-09-11 13:59:53,1554393
2025-09-11 13:59:53,1554434
2025-09-11 13:59:53,1554477
2025-09-11 13:59:53,1554523
2025-09-11 13:59:53,1554597
2025-09-11 13:59:53,1554588
2025-09-11 13:59:53,1554672
2025-09-11 13:59:53,1554771
2025-09-11 13:59:53,1554740
2025-09-11 13:59:53,1554830
2025-09-11 13:59:53,1554906
2025-09-11 13:59:53,1555033
2025-09-11 13:59:53,1555131
2025-09-11 13:59:53,1555227
2025-09-11 13:59:53,1555414
2025-09-11 13:59:53,1555628
2025-09-11 13:59:53,1555665
2025-09-11 13:59:53,1555802
2025-09-11 13:59:53,1556005
2025-09-11 13:59:53,1556190
2025-09-11 13:59:53,1556364
2025-09-11 13:59:53,1556508
2025-09-11 13:59:53,1556727
2025-09-11 13:59:53,1556837
2025-09-11 13:59:53,1556959
2025-09-11 13:59:53,1557219
2025-09-11 13:59:53,1557469
2025-09-11 13:59:53,1557622
2025-09-11 13:59:53,1557831
2025-09-11 13:59:53,1557910
2025-09-11 13:59:54,1558146
2025-09-11 13:59:54,1558356
2025-09-11 13:59:54,1558460
2025-09-11 13:59:54,1558684
2025-09-11 13:59:54,1558887
2025-09-11 13:59:54,1559069
2025-09-11 13:59:54,1559241
2025-09-11 13:59:54,1559421
2025-09-11 13:59:54,1559607
2025-09-11 13:59:54,1559745
2025-09-11 13:59:54,1559808
2025-09-11 13:59:54,1559633
2025-09-11 13:59:54,1559351
2025-09-11 13:59:54,1558672
2025-09-11 13:59:54,1557971
2025-09-11 13:59:54,1557183
2025-09-11 13:59:54,1556318
2025-09-11 13:59:54,1555661
2025-09-11 13:59:54,1555023
2025-09-11 13:59:54,1554527
2025-09-11 13:59:54,1554246
2025-09-11 13:59:54,1554022
2025-09-11 13:59:54,1553830
2025-09-11 13:59:54,1553787
2025-09-11 13:59:54,1553589
2025-09-11 13:59:54,1553704
2025-09-11 13:59:54,1553616
2025-09-11 13:59:54,1553543
2025-09-11 13:59:54,1553565
2025-09-11 13:59:54,1553552
2025-09-11 13:59:54,1553551
2025-09-11 13:59:54,1553612
2025-09-11 13:59:54,1553685
2025-09-11 13:59:54,1553621
2025-09-11 13:59:54,1553800
2025-09-11 13:59:54,1553826
2025-09-11 13:59:54,1553973
2025-09-11 13:59:54,1554121
2025-09-11 13:59:54,1554311
2025-09-11 13:59:54,1554333
2025-09-11 13:59:54,1554555
2025-09-11 13:59:54,1554617
2025-09-11 13:59:54,1554793
2025-09-11 13:59:54,1554789
2025-09-11 13:59:54,1554848
2025-09-11 13:59:54,1554855
2025-09-11 13:59:54,1554907
2025-09-11 13:59:54,1554962
2025-09-11 13:59:54,1554953
2025-09-11 13:59:54,1554957
2025-09-11 13:59:54,1555023
2025-09-11 13:59:54,1555136
2025-09-11 13:59:54,1555100
2025-09-11 13:59:54,1555248
2025-09-11 13:59:54,1555248
2025-09-11 13:59:54,1555406
2025-09-11 13:59:54,1555467
2025-09-11 13:59:54,1555592
2025-09-11 13:59:54,1555743
2025-09-11 13:59:54,1555816
2025-09-11 13:59:54,1556044
2025-09-11 13:59:54,1556224
2025-09-11 13:59:54,1556382
2025-09-11 13:59:54,1556511
2025-09-11 13:59:54,1556680
2025-09-11 13:59:54,1556876
2025-09-11 13:59:54,1557018
2025-09-11 13:59:54,1557196
2025-09-11 13:59:54,1557316
2025-09-11 13:59:54,1557597
2025-09-11 13:59:54,1557666
2025-09-11 13:59:54,1557787
2025-09-11 13:59:54,1558103
2025-09-11 13:59:54,1558298
2025-09-11 13:59:54,1558419
2025-09-11 13:59:54,1558547
2025-09-11 13:59:54,1558731
2025-09-11 13:59:54,1558928
2025-09-11 13:59:54,1559045
2025-09-11 13:59:54,1559282
2025-09-11 13:59:54,1559371
2025-09-11 13:59:54,1559606
2025-09-11 13:59:54,1559748
2025-09-11 13:59:54,1559844
2025-09-11 13:59:54,1560150
2025-09-11 13:59:54,1560082
2025-09-11 13:59:54,1559843
2025-09-11 13:59:54,1559563
2025-09-11 13:59:54,1559124
2025-09-11 13:59:54,1558296
2025-09-11 13:59:54,1557388
2025-09-11 13:59:54,1556641
2025-09-11 13:59:54,1555856
2025-09-11 13:59:54,1555326
2025-09-11 13:59:54,1554906
2025-09-11 13:59:54,1554577
2025-09-11 13:59:54,1554308
2025-09-11 13:59:54,1554209
2025-09-11 13:59:54,1554016
2025-09-11 13:59:54,1554021
2025-09-11 13:59:54,1554039
2025-09-11 13:59:55,1553929
2025-09-11 13:59:55,1553984
2025-09-11 13:59:55,1553945
2025-09-11 13:59:55,1553960
2025-09-11 13:59:55,1553933
2025-09-11 13:59:55,1554060
2025-09-11 13:59:55,1554121
2025-09-11 13:59:55,1554128
2025-09-11 13:59:55,1554248
2025-09-11 13:59:55,1554450
2025-09-11 13:59:55,1554534
2025-09-11 13:59:55,1554680
2025-09-11 13:59:55,1554731
2025-09-11 13:59:55,1554954
2025-09-11 13:59:55,1555091
2025-09-11 13:59:55,1555220
2025-09-11 13:59:55,1555260
2025-09-11 13:59:55,1555413
2025-09-11 13:59:55,1555441
2025-09-11 13:59:55,1555458
2025-09-11 13:59:55,1555495
2025-09-11 13:59:55,1555539
2025-09-11 13:59:55,1555630
2025-09-11 13:59:55,1555671
2025-09-11 13:59:55,1555680
2025-09-11 13:59:55,1555812
2025-09-11 13:59:55,1555899
2025-09-11 13:59:55,1555956
2025-09-11 13:59:55,1556016
2025-09-11 13:59:55,1556126
2025-09-11 13:59:55,1556239
2025-09-11 13:59:55,1556380
2025-09-11 13:59:55,1556539
2025-09-11 13:59:55,1556672
2025-09-11 13:59:55,1556823
2025-09-11 13:59:55,1557027
2025-09-11 13:59:55,1557222
2025-09-11 13:59:55,1557403
2025-09-11 13:59:55,1557614
2025-09-11 13:59:55,1557790
2025-09-11 13:59:55,1557911
2025-09-11 13:59:55,1558103
2025-09-11 13:59:55,1558247
2025-09-11 13:59:55,1558579
2025-09-11 13:59:55,1558661
2025-09-11 13:59:55,1558902
2025-09-11 13:59:55,1559130
2025-09-11 13:59:55,1559221
2025-09-11 13:59:55,1559406
2025-09-11 13:59:55,1559555
2025-09-11 13:59:55,1559732
2025-09-11 13:59:55,1559953
2025-09-11 13:59:55,1560093
2025-09-11 13:59:55,1560377
2025-09-11 13:59:55,1560629
2025-09-11 13:59:55,1560713
2025-09-11 13:59:55,1560877
2025-09-11 13:59:55,1560940
2025-09-11 13:59:55,1560983
2025-09-11 13:59:55,1560777
2025-09-11 13:59:55,1560397
2025-09-11 13:59:55,1559744
2025-09-11 13:59:55,1558919
2025-09-11 13:59:55,1558184
2025-09-11 13:59:55,1557377
2025-09-11 13:59:55,1556685
2025-09-11 13:59:55,1556057
2025-09-11 13:59:55,1555670
2025-09-11 13:59:55,1555353
2025-09-11 13:59:55,1555288
2025-09-11 13:59:55,1555140
2025-09-11 13:59:55,1555100
2025-09-11 13:59:55,1555048
2025-09-11 13:59:55,1554976
2025-09-11 13:59:55,1554993
2025-09-11 13:59:55,1555015
2025-09-11 13:59:55,1554985
2025-09-11 13:59:55,1555085
2025-09-11 13:59:55,1555088
2025-09-11 13:59:55,1555185
2025-09-11 13:59:55,1555209
2025-09-11 13:59:55,1555286
2025-09-11 13:59:55,1555465
2025-09-11 13:59:55,1555554
2025-09-11 13:59:55,1555721
2025-09-11 13:59:55,1555853
2025-09-11 13:59:55,1556020
2025-09-11 13:59:55,1556151
2025-09-11 13:59:55,1556274
2025-09-11 13:59:55,1556281
2025-09-11 13:59:55,1556438
2025-09-11 13:59:55,1556554
2025-09-11 13:59:55,1556594
2025-09-11 13:59:55,1556512
2025-09-11 13:59:55,1556621
2025-09-11 13:59:55,1556606
2025-09-11 13:59:55,1556624
2025-09-11 13:59:55,1556712
2025-09-11 13:59:55,1556682
2025-09-11 13:59:55,1556719
2025-09-11 13:59:56,1556800
2025-09-11 13:59:56,1556861
2025-09-11 13:59:56,1557042
2025-09-11 13:59:56,1557094
2025-09-11 13:59:56,1557252
2025-09-11 13:59:56,1557382
2025-09-11 13:59:56,1557470
2025-09-11 13:59:56,1557662
2025-09-11 13:59:56,1557756
2025-09-11 13:59:56,1557977
2025-09-11 13:59:56,1558058
2025-09-11 13:59:56,1558273
2025-09-11 13:59:56,1558380
2025-09-11 13:59:56,1558601
2025-09-11 13:59:56,1558910
2025-09-11 13:59:56,1558892
2025-09-11 13:59:56,1559053
2025-09-11 13:59:56,1559180
2025-09-11 13:59:56,1559319
2025-09-11 13:59:56,1559490
2025-09-11 13:59:56,1559731
2025-09-11 13:59:56,1559892
2025-09-11 13:59:56,1560100
2025-09-11 13:59:56,1560240
2025-09-11 13:59:56,1560392
2025-09-11 13:59:56,1560532
2025-09-11 13:59:56,1560689
2025-09-11 13:59:56,1560741
2025-09-11 13:59:56,1560611
2025-09-11 13:59:56,1560216
2025-09-11 13:59:56,1559758
2025-09-11 13:59:56,1559016
2025-09-11 13:59:56,1558295
2025-09-11 13:59:56,1557457
2025-09-11 13:59:56,1556675
2025-09-11 13:59:56,1556091
2025-09-11 13:59:56,1555574
2025-09-11 13:59:56,1555304
