timestamp,value
2025-09-11 14:38:03,1145002
2025-09-11 14:38:03,1145061
2025-09-11 14:38:03,1145112
2025-09-11 14:38:03,1145116
2025-09-11 14:38:03,1145170
2025-09-11 14:38:03,1145208
2025-09-11 14:38:03,1145196
2025-09-11 14:38:03,1145276
2025-09-11 14:38:03,1145276
2025-09-11 14:38:03,1145320
2025-09-11 14:38:03,1145243
2025-09-11 14:38:03,1145190
2025-09-11 14:38:03,1145311
2025-09-11 14:38:03,1145317
2025-09-11 14:38:03,1145331
2025-09-11 14:38:03,1145318
2025-09-11 14:38:03,1145350
2025-09-11 14:38:03,1145423
2025-09-11 14:38:03,1145506
2025-09-11 14:38:03,1145518
2025-09-11 14:38:03,1145641
2025-09-11 14:38:04,1145742
2025-09-11 14:38:04,1145715
2025-09-11 14:38:04,1145906
2025-09-11 14:38:04,1145944
2025-09-11 14:38:04,1146102
2025-09-11 14:38:04,1146134
2025-09-11 14:38:04,1146336
2025-09-11 14:38:04,1146363
2025-09-11 14:38:04,1146389
2025-09-11 14:38:04,1146570
2025-09-11 14:38:04,1146547
2025-09-11 14:38:04,1146561
2025-09-11 14:38:04,1146668
2025-09-11 14:38:04,1146726
2025-09-11 14:38:04,1146655
2025-09-11 14:38:04,1146587
2025-09-11 14:38:04,1146455
2025-09-11 14:38:04,1146195
2025-09-11 14:38:04,1146158
2025-09-11 14:38:04,1146067
2025-09-11 14:38:04,1145864
2025-09-11 14:38:04,1145782
2025-09-11 14:38:04,1145653
2025-09-11 14:38:04,1145475
2025-09-11 14:38:04,1145537
2025-09-11 14:38:04,1145360
2025-09-11 14:38:04,1145398
2025-09-11 14:38:04,1145342
2025-09-11 14:38:04,1145320
2025-09-11 14:38:04,1145272
2025-09-11 14:38:04,1145238
2025-09-11 14:38:04,1145310
2025-09-11 14:38:04,1145214
2025-09-11 14:38:04,1145282
2025-09-11 14:38:04,1145293
2025-09-11 14:38:04,1145381
2025-09-11 14:38:04,1145391
2025-09-11 14:38:04,1145458
2025-09-11 14:38:04,1145499
2025-09-11 14:38:04,1145590
2025-09-11 14:38:04,1145697
2025-09-11 14:38:04,1145771
2025-09-11 14:38:04,1145857
2025-09-11 14:38:04,1145946
2025-09-11 14:38:04,1145897
2025-09-11 14:38:04,1145699
2025-09-11 14:38:04,1145538
2025-09-11 14:38:04,1145387
2025-09-11 14:38:04,1145326
2025-09-11 14:38:04,1145260
2025-09-11 14:38:04,1145059
2025-09-11 14:38:04,1144861
2025-09-11 14:38:04,1144672
2025-09-11 14:38:04,1144521
2025-09-11 14:38:04,1144516
2025-09-11 14:38:04,1144700
2025-09-11 14:38:04,1144965
2025-09-11 14:38:04,1145436
2025-09-11 14:38:04,1145704
2025-09-11 14:38:04,1145602
2025-09-11 14:38:04,1145422
2025-09-11 14:38:04,1144943
2025-09-11 14:38:04,1144184
2025-09-11 14:38:04,1143567
2025-09-11 14:38:04,1143362
2025-09-11 14:38:04,1143447
2025-09-11 14:38:04,1144076
2025-09-11 14:38:04,1144888
2025-09-11 14:38:04,1145571
2025-09-11 14:38:04,1146232
2025-09-11 14:38:04,1146844
2025-09-11 14:38:04,1147330
2025-09-11 14:38:04,1147860
2025-09-11 14:38:04,1148404
2025-09-11 14:38:04,1148868
2025-09-11 14:38:04,1149046
2025-09-11 14:38:04,1149300
2025-09-11 14:38:04,1149581
2025-09-11 14:38:04,1149708
2025-09-11 14:38:04,1149887
2025-09-11 14:38:04,1150299
2025-09-11 14:38:04,1150761
2025-09-11 14:38:04,1151092
2025-09-11 14:38:04,1151500
2025-09-11 14:38:04,1151762
2025-09-11 14:38:04,1151945
2025-09-11 14:38:04,1151957
2025-09-11 14:38:04,1151981
2025-09-11 14:38:04,1152050
2025-09-11 14:38:04,1152092
2025-09-11 14:38:04,1152042
2025-09-11 14:38:04,1152362
2025-09-11 14:38:04,1152869
2025-09-11 14:38:04,1154566
2025-09-11 14:38:04,1155339
2025-09-11 14:38:04,1155367
2025-09-11 14:38:04,1155620
2025-09-11 14:38:04,1156672
2025-09-11 14:38:04,1157511
2025-09-11 14:38:04,1157986
2025-09-11 14:38:05,1158328
2025-09-11 14:38:05,1158298
2025-09-11 14:38:05,1157821
2025-09-11 14:38:05,1157058
2025-09-11 14:38:05,1156322
2025-09-11 14:38:05,1155742
2025-09-11 14:38:05,1155201
2025-09-11 14:38:05,1154507
2025-09-11 14:38:05,1153677
2025-09-11 14:38:05,1152687
2025-09-11 14:38:05,1151815
2025-09-11 14:38:05,1150713
2025-09-11 14:38:05,1149497
2025-09-11 14:38:05,1148036
2025-09-11 14:38:05,1147048
2025-09-11 14:38:05,1146665
2025-09-11 14:38:05,1146697
2025-09-11 14:38:05,1146976
2025-09-11 14:38:05,1147401
2025-09-11 14:38:05,1147931
2025-09-11 14:38:05,1148518
2025-09-11 14:38:05,1149199
2025-09-11 14:38:05,1149330
2025-09-11 14:38:05,1148413
2025-09-11 14:38:05,1147151
2025-09-11 14:38:05,1145716
2025-09-11 14:38:05,1144098
2025-09-11 14:38:05,1142483
2025-09-11 14:38:05,1141330
2025-09-11 14:38:05,1140377
2025-09-11 14:38:05,1138864
2025-09-11 14:38:05,1136767
2025-09-11 14:38:05,1133642
2025-09-11 14:38:05,1130034
2025-09-11 14:38:05,1126880
2025-09-11 14:38:05,1124778
2025-09-11 14:38:05,1124055
2025-09-11 14:38:05,1124234
2025-09-11 14:38:05,1124687
2025-09-11 14:38:05,1124904
2025-09-11 14:38:05,1124496
2025-09-11 14:38:05,1123587
2025-09-11 14:38:05,1122493
2025-09-11 14:38:05,1121293
2025-09-11 14:38:05,1120107
2025-09-11 14:38:05,1119216
2025-09-11 14:38:05,1118435
2025-09-11 14:38:05,1117952
2025-09-11 14:38:05,1117383
2025-09-11 14:38:05,1117129
2025-09-11 14:38:05,1116849
2025-09-11 14:38:05,1116503
2025-09-11 14:38:05,1116151
2025-09-11 14:38:05,1115874
2025-09-11 14:38:05,1115437
2025-09-11 14:38:05,1115150
2025-09-11 14:38:05,1114778
2025-09-11 14:38:05,1114518
2025-09-11 14:38:05,1114211
2025-09-11 14:38:05,1113961
2025-09-11 14:38:05,1113605
2025-09-11 14:38:05,1113268
2025-09-11 14:38:05,1112957
2025-09-11 14:38:05,1112606
2025-09-11 14:38:05,1112391
2025-09-11 14:38:05,1112049
2025-09-11 14:38:05,1111822
2025-09-11 14:38:05,1111613
2025-09-11 14:38:05,1111403
2025-09-11 14:38:05,1111205
2025-09-11 14:38:05,1110982
2025-09-11 14:38:05,1110824
2025-09-11 14:38:05,1110710
2025-09-11 14:38:05,1110539
2025-09-11 14:38:05,1110433
2025-09-11 14:38:05,1110277
2025-09-11 14:38:05,1110157
2025-09-11 14:38:05,1110091
2025-09-11 14:38:05,1110017
2025-09-11 14:38:05,1109906
2025-09-11 14:38:05,1109910
2025-09-11 14:38:05,1109854
2025-09-11 14:38:05,1109828
2025-09-11 14:38:05,1109750
2025-09-11 14:38:05,1109730
2025-09-11 14:38:05,1109752
2025-09-11 14:38:05,1109662
2025-09-11 14:38:05,1109823
2025-09-11 14:38:05,1109845
2025-09-11 14:38:05,1109924
2025-09-11 14:38:05,1109843
2025-09-11 14:38:05,1109768
2025-09-11 14:38:05,1109632
2025-09-11 14:38:05,1109594
2025-09-11 14:38:05,1109458
2025-09-11 14:38:05,1109312
2025-09-11 14:38:05,1109231
2025-09-11 14:38:05,1109155
2025-09-11 14:38:05,1109068
2025-09-11 14:38:05,1109066
2025-09-11 14:38:06,1108995
2025-09-11 14:38:06,1108918
2025-09-11 14:38:06,1108958
2025-09-11 14:38:06,1108900
2025-09-11 14:38:06,1108917
2025-09-11 14:38:06,1108833
2025-09-11 14:38:06,1108837
2025-09-11 14:38:06,1108827
2025-09-11 14:38:06,1108769
2025-09-11 14:38:06,1108804
2025-09-11 14:38:06,1108750
2025-09-11 14:38:06,1108756
2025-09-11 14:38:06,1108724
2025-09-11 14:38:06,1108662
2025-09-11 14:38:06,1108614
2025-09-11 14:38:06,1108607
2025-09-11 14:38:06,1108651
2025-09-11 14:38:06,1108574
2025-09-11 14:38:06,1108574
2025-09-11 14:38:06,1108590
2025-09-11 14:38:06,1108576
2025-09-11 14:38:06,1108620
2025-09-11 14:38:06,1108533
2025-09-11 14:38:06,1108482
2025-09-11 14:38:06,1108544
2025-09-11 14:38:06,1108462
2025-09-11 14:38:06,1108466
2025-09-11 14:38:06,1108364
2025-09-11 14:38:06,1108371
2025-09-11 14:38:06,1108269
2025-09-11 14:38:06,1108114
2025-09-11 14:38:06,1107957
2025-09-11 14:38:06,1107793
2025-09-11 14:38:06,1107472
2025-09-11 14:38:06,1107335
2025-09-11 14:38:06,1107108
2025-09-11 14:38:06,1106920
2025-09-11 14:38:06,1106748
2025-09-11 14:38:06,1106502
2025-09-11 14:38:06,1106456
2025-09-11 14:38:06,1106342
2025-09-11 14:38:06,1106168
2025-09-11 14:38:06,1106144
2025-09-11 14:38:06,1105963
2025-09-11 14:38:06,1105848
2025-09-11 14:38:06,1105841
2025-09-11 14:38:06,1105696
2025-09-11 14:38:06,1105712
2025-09-11 14:38:06,1105493
2025-09-11 14:38:06,1105382
2025-09-11 14:38:06,1105303
2025-09-11 14:38:06,1105249
2025-09-11 14:38:06,1105183
2025-09-11 14:38:06,1105110
2025-09-11 14:38:06,1105113
2025-09-11 14:38:06,1104996
2025-09-11 14:38:06,1105005
2025-09-11 14:38:06,1104977
2025-09-11 14:38:06,1104890
2025-09-11 14:38:06,1104845
2025-09-11 14:38:06,1104744
2025-09-11 14:38:06,1104606
2025-09-11 14:38:06,1104508
2025-09-11 14:38:06,1104426
2025-09-11 14:38:06,1104399
2025-09-11 14:38:06,1104295
2025-09-11 14:38:06,1104175
2025-09-11 14:38:06,1104172
2025-09-11 14:38:06,1104031
2025-09-11 14:38:06,1104050
2025-09-11 14:38:06,1103965
2025-09-11 14:38:06,1103913
2025-09-11 14:38:06,1103921
2025-09-11 14:38:06,1103845
2025-09-11 14:38:06,1103806
2025-09-11 14:38:06,1103734
2025-09-11 14:38:06,1103771
2025-09-11 14:38:06,1103743
2025-09-11 14:38:06,1103692
2025-09-11 14:38:06,1103637
2025-09-11 14:38:06,1103602
2025-09-11 14:38:06,1103544
2025-09-11 14:38:06,1103592
2025-09-11 14:38:06,1103459
2025-09-11 14:38:06,1103579
2025-09-11 14:38:06,1103482
2025-09-11 14:38:06,1103493
2025-09-11 14:38:06,1103450
2025-09-11 14:38:06,1103453
2025-09-11 14:38:06,1103384
2025-09-11 14:38:06,1103407
2025-09-11 14:38:06,1103372
2025-09-11 14:38:06,1103433
2025-09-11 14:38:06,1103360
2025-09-11 14:38:06,1103403
2025-09-11 14:38:06,1103290
2025-09-11 14:38:06,1103274
2025-09-11 14:38:06,1103090
2025-09-11 14:38:06,1102893
2025-09-11 14:38:06,1102689
2025-09-11 14:38:06,1102397
2025-09-11 14:38:06,1102337
2025-09-11 14:38:07,1102127
2025-09-11 14:38:07,1101900
2025-09-11 14:38:07,1101746
2025-09-11 14:38:07,1101548
2025-09-11 14:38:07,1101445
2025-09-11 14:38:07,1101387
2025-09-11 14:38:07,1101236
2025-09-11 14:38:07,1101149
2025-09-11 14:38:07,1101084
2025-09-11 14:38:07,1100927
2025-09-11 14:38:07,1100896
2025-09-11 14:38:07,1100847
2025-09-11 14:38:07,1100722
2025-09-11 14:38:07,1100699
2025-09-11 14:38:07,1100600
2025-09-11 14:38:07,1100568
2025-09-11 14:38:07,1100417
2025-09-11 14:38:07,1100351
2025-09-11 14:38:07,1100361
2025-09-11 14:38:07,1100411
2025-09-11 14:38:07,1100231
2025-09-11 14:38:07,1100280
2025-09-11 14:38:07,1100256
2025-09-11 14:38:07,1100160
2025-09-11 14:38:07,1100191
2025-09-11 14:38:07,1100178
2025-09-11 14:38:07,1100122
2025-09-11 14:38:07,1100076
2025-09-11 14:38:07,1099919
2025-09-11 14:38:07,1099902
2025-09-11 14:38:07,1099879
2025-09-11 14:38:07,1099775
2025-09-11 14:38:07,1099726
2025-09-11 14:38:07,1099660
2025-09-11 14:38:07,1099649
2025-09-11 14:38:07,1099625
2025-09-11 14:38:07,1099611
2025-09-11 14:38:07,1099512
2025-09-11 14:38:07,1099502
2025-09-11 14:38:07,1099509
2025-09-11 14:38:07,1099486
2025-09-11 14:38:07,1099489
2025-09-11 14:38:07,1099401
2025-09-11 14:38:07,1099365
2025-09-11 14:38:07,1099366
2025-09-11 14:38:07,1099329
2025-09-11 14:38:07,1099219
2025-09-11 14:38:07,1099245
2025-09-11 14:38:07,1099264
2025-09-11 14:38:07,1099300
2025-09-11 14:38:07,1099266
2025-09-11 14:38:07,1099254
2025-09-11 14:38:07,1099235
2025-09-11 14:38:07,1099256
2025-09-11 14:38:07,1099165
2025-09-11 14:38:07,1099226
2025-09-11 14:38:07,1099164
2025-09-11 14:38:07,1099241
2025-09-11 14:38:07,1099175
2025-09-11 14:38:07,1099128
2025-09-11 14:38:07,1099152
2025-09-11 14:38:07,1099149
2025-09-11 14:38:07,1099201
2025-09-11 14:38:07,1099130
2025-09-11 14:38:07,1099147
2025-09-11 14:38:07,1099128
2025-09-11 14:38:07,1099093
2025-09-11 14:38:07,1099048
2025-09-11 14:38:07,1098862
2025-09-11 14:38:07,1098745
2025-09-11 14:38:07,1098537
2025-09-11 14:38:07,1098355
2025-09-11 14:38:07,1098167
2025-09-11 14:38:07,1097969
2025-09-11 14:38:07,1097827
2025-09-11 14:38:07,1097720
2025-09-11 14:38:07,1097630
2025-09-11 14:38:07,1097423
2025-09-11 14:38:07,1097257
2025-09-11 14:38:07,1097288
2025-09-11 14:38:07,1097167
2025-09-11 14:38:07,1097121
2025-09-11 14:38:07,1097101
2025-09-11 14:38:07,1097021
2025-09-11 14:38:07,1096934
2025-09-11 14:38:07,1096873
2025-09-11 14:38:07,1096809
2025-09-11 14:38:07,1096722
2025-09-11 14:38:07,1096692
2025-09-11 14:38:07,1096561
2025-09-11 14:38:07,1096605
2025-09-11 14:38:07,1096607
2025-09-11 14:38:07,1096569
2025-09-11 14:38:07,1096533
2025-09-11 14:38:07,1096496
2025-09-11 14:38:07,1096440
2025-09-11 14:38:07,1096512
2025-09-11 14:38:07,1096461
2025-09-11 14:38:07,1096521
2025-09-11 14:38:07,1096442
2025-09-11 14:38:08,1096400
2025-09-11 14:38:08,1096348
2025-09-11 14:38:08,1096235
2025-09-11 14:38:08,1096204
2025-09-11 14:38:08,1096099
2025-09-11 14:38:08,1096144
2025-09-11 14:38:08,1096176
2025-09-11 14:38:08,1096026
2025-09-11 14:38:08,1096061
2025-09-11 14:38:08,1096041
2025-09-11 14:38:08,1096005
2025-09-11 14:38:08,1096004
2025-09-11 14:38:08,1095909
2025-09-11 14:38:08,1095943
2025-09-11 14:38:08,1095947
2025-09-11 14:38:08,1095872
2025-09-11 14:38:08,1095943
2025-09-11 14:38:08,1095891
2025-09-11 14:38:08,1095847
2025-09-11 14:38:08,1095889
2025-09-11 14:38:08,1095851
2025-09-11 14:38:08,1095834
2025-09-11 14:38:08,1095875
2025-09-11 14:38:08,1095861
2025-09-11 14:38:08,1095878
2025-09-11 14:38:08,1095911
2025-09-11 14:38:08,1095879
2025-09-11 14:38:08,1095922
2025-09-11 14:38:08,1095884
2025-09-11 14:38:08,1095878
2025-09-11 14:38:08,1095849
2025-09-11 14:38:08,1095898
2025-09-11 14:38:08,1095905
2025-09-11 14:38:08,1095896
2025-09-11 14:38:08,1095904
2025-09-11 14:38:08,1095922
2025-09-11 14:38:08,1095913
2025-09-11 14:38:08,1095926
2025-09-11 14:38:08,1095873
2025-09-11 14:38:08,1095909
2025-09-11 14:38:08,1095955
2025-09-11 14:38:08,1095997
2025-09-11 14:38:08,1095969
2025-09-11 14:38:08,1095973
2025-09-11 14:38:08,1096046
2025-09-11 14:38:08,1096089
2025-09-11 14:38:08,1096107
2025-09-11 14:38:08,1096146
2025-09-11 14:38:08,1096092
2025-09-11 14:38:08,1096026
2025-09-11 14:38:08,1095882
2025-09-11 14:38:08,1095739
2025-09-11 14:38:08,1095525
2025-09-11 14:38:08,1095393
2025-09-11 14:38:08,1095345
2025-09-11 14:38:08,1095149
2025-09-11 14:38:08,1095119
2025-09-11 14:38:08,1095006
2025-09-11 14:38:08,1094939
2025-09-11 14:38:08,1094924
2025-09-11 14:38:08,1094846
2025-09-11 14:38:08,1094901
2025-09-11 14:38:08,1094822
2025-09-11 14:38:08,1094832
2025-09-11 14:38:08,1094767
2025-09-11 14:38:08,1094824
2025-09-11 14:38:08,1094746
2025-09-11 14:38:08,1094674
2025-09-11 14:38:08,1094747
2025-09-11 14:38:08,1094787
2025-09-11 14:38:08,1094719
2025-09-11 14:38:08,1094726
2025-09-11 14:38:08,1094746
2025-09-11 14:38:08,1094848
2025-09-11 14:38:08,1094800
2025-09-11 14:38:08,1094900
2025-09-11 14:38:08,1094885
2025-09-11 14:38:08,1094945
2025-09-11 14:38:08,1094965
2025-09-11 14:38:08,1094885
2025-09-11 14:38:08,1094928
2025-09-11 14:38:08,1094856
2025-09-11 14:38:08,1094956
2025-09-11 14:38:08,1094945
2025-09-11 14:38:08,1094854
2025-09-11 14:38:08,1094880
2025-09-11 14:38:08,1094886
2025-09-11 14:38:08,1094849
2025-09-11 14:38:08,1094958
2025-09-11 14:38:08,1094970
2025-09-11 14:38:08,1094990
2025-09-11 14:38:08,1094949
2025-09-11 14:38:08,1095010
2025-09-11 14:38:08,1095061
2025-09-11 14:38:08,1095036
2025-09-11 14:38:08,1095014
2025-09-11 14:38:08,1095088
2025-09-11 14:38:08,1095097
2025-09-11 14:38:08,1095153
2025-09-11 14:38:08,1095180
2025-09-11 14:38:09,1095204
2025-09-11 14:38:09,1095242
2025-09-11 14:38:09,1095264
2025-09-11 14:38:09,1095331
2025-09-11 14:38:09,1095455
2025-09-11 14:38:09,1095404
2025-09-11 14:38:09,1095412
2025-09-11 14:38:09,1095476
2025-09-11 14:38:09,1095496
2025-09-11 14:38:09,1095506
2025-09-11 14:38:09,1095482
2025-09-11 14:38:09,1095523
2025-09-11 14:38:09,1095580
2025-09-11 14:38:09,1095645
2025-09-11 14:38:09,1095698
2025-09-11 14:38:09,1095672
2025-09-11 14:38:09,1095783
2025-09-11 14:38:09,1095744
2025-09-11 14:38:09,1095800
2025-09-11 14:38:09,1095794
2025-09-11 14:38:09,1095845
2025-09-11 14:38:09,1095893
2025-09-11 14:38:09,1096009
2025-09-11 14:38:09,1095966
2025-09-11 14:38:09,1095982
2025-09-11 14:38:09,1095958
2025-09-11 14:38:09,1096085
2025-09-11 14:38:09,1096053
2025-09-11 14:38:09,1096175
2025-09-11 14:38:09,1096261
2025-09-11 14:38:09,1096259
2025-09-11 14:38:09,1096380
2025-09-11 14:38:09,1096387
2025-09-11 14:38:09,1096481
2025-09-11 14:38:09,1096463
2025-09-11 14:38:09,1096464
2025-09-11 14:38:09,1096413
2025-09-11 14:38:09,1096317
2025-09-11 14:38:09,1096221
2025-09-11 14:38:09,1096101
2025-09-11 14:38:09,1095912
2025-09-11 14:38:09,1095917
2025-09-11 14:38:09,1095824
2025-09-11 14:38:09,1095780
2025-09-11 14:38:09,1095730
2025-09-11 14:38:09,1095709
2025-09-11 14:38:09,1095727
2025-09-11 14:38:09,1095783
2025-09-11 14:38:09,1095752
2025-09-11 14:38:09,1095846
2025-09-11 14:38:09,1095836
2025-09-11 14:38:09,1095860
2025-09-11 14:38:09,1095837
2025-09-11 14:38:09,1095980
2025-09-11 14:38:09,1095962
2025-09-11 14:38:09,1095927
2025-09-11 14:38:09,1096030
2025-09-11 14:38:09,1096089
2025-09-11 14:38:09,1096114
2025-09-11 14:38:09,1096255
2025-09-11 14:38:09,1096270
2025-09-11 14:38:09,1096340
2025-09-11 14:38:09,1096389
2025-09-11 14:38:09,1096416
2025-09-11 14:38:09,1096397
2025-09-11 14:38:09,1096485
2025-09-11 14:38:09,1096595
2025-09-11 14:38:09,1096584
2025-09-11 14:38:09,1096591
2025-09-11 14:38:09,1096606
2025-09-11 14:38:09,1096553
2025-09-11 14:38:09,1096564
2025-09-11 14:38:09,1096539
2025-09-11 14:38:09,1096577
2025-09-11 14:38:09,1096632
2025-09-11 14:38:09,1096660
2025-09-11 14:38:09,1096730
2025-09-11 14:38:09,1096762
2025-09-11 14:38:09,1096859
2025-09-11 14:38:09,1096801
2025-09-11 14:38:09,1096909
2025-09-11 14:38:09,1097008
2025-09-11 14:38:09,1096991
2025-09-11 14:38:09,1097039
2025-09-11 14:38:09,1097070
2025-09-11 14:38:09,1097163
2025-09-11 14:38:09,1097156
2025-09-11 14:38:09,1097240
2025-09-11 14:38:09,1097278
2025-09-11 14:38:09,1097262
2025-09-11 14:38:09,1097373
2025-09-11 14:38:09,1097362
2025-09-11 14:38:09,1097441
2025-09-11 14:38:09,1097516
2025-09-11 14:38:09,1097550
2025-09-11 14:38:09,1097551
2025-09-11 14:38:09,1097602
2025-09-11 14:38:09,1097644
2025-09-11 14:38:09,1097730
2025-09-11 14:38:09,1097738
2025-09-11 14:38:10,1097728
2025-09-11 14:38:10,1097783
2025-09-11 14:38:10,1097841
2025-09-11 14:38:10,1097895
2025-09-11 14:38:10,1097991
2025-09-11 14:38:10,1097982
2025-09-11 14:38:10,1098074
2025-09-11 14:38:10,1098168
2025-09-11 14:38:10,1098129
2025-09-11 14:38:10,1098165
2025-09-11 14:38:10,1098303
2025-09-11 14:38:10,1098351
2025-09-11 14:38:10,1098382
2025-09-11 14:38:10,1098459
2025-09-11 14:38:10,1098479
2025-09-11 14:38:10,1098436
2025-09-11 14:38:10,1098384
2025-09-11 14:38:10,1098301
2025-09-11 14:38:10,1098222
2025-09-11 14:38:10,1098115
2025-09-11 14:38:10,1098037
2025-09-11 14:38:10,1097966
2025-09-11 14:38:10,1097974
2025-09-11 14:38:10,1097953
2025-09-11 14:38:10,1097929
2025-09-11 14:38:10,1097947
2025-09-11 14:38:10,1097988
2025-09-11 14:38:10,1098032
2025-09-11 14:38:10,1098062
2025-09-11 14:38:10,1098139
2025-09-11 14:38:10,1098252
2025-09-11 14:38:10,1098236
2025-09-11 14:38:10,1098223
2025-09-11 14:38:10,1098265
2025-09-11 14:38:10,1098299
2025-09-11 14:38:10,1098282
2025-09-11 14:38:10,1098288
2025-09-11 14:38:10,1098418
2025-09-11 14:38:10,1098423
2025-09-11 14:38:10,1098582
2025-09-11 14:38:10,1098534
2025-09-11 14:38:10,1098677
2025-09-11 14:38:10,1098642
2025-09-11 14:38:10,1098658
2025-09-11 14:38:10,1098777
2025-09-11 14:38:10,1098782
2025-09-11 14:38:10,1098763
2025-09-11 14:38:10,1098868
2025-09-11 14:38:10,1098795
2025-09-11 14:38:10,1098815
2025-09-11 14:38:10,1098883
2025-09-11 14:38:10,1098881
2025-09-11 14:38:10,1098939
2025-09-11 14:38:10,1098932
2025-09-11 14:38:10,1099019
2025-09-11 14:38:10,1099011
2025-09-11 14:38:10,1099097
2025-09-11 14:38:10,1099130
2025-09-11 14:38:10,1099099
2025-09-11 14:38:10,1099154
2025-09-11 14:38:10,1099236
2025-09-11 14:38:10,1099240
2025-09-11 14:38:10,1099273
2025-09-11 14:38:10,1099334
2025-09-11 14:38:10,1099328
2025-09-11 14:38:10,1099427
2025-09-11 14:38:10,1099444
2025-09-11 14:38:10,1099438
2025-09-11 14:38:10,1099570
2025-09-11 14:38:10,1099623
2025-09-11 14:38:10,1099669
2025-09-11 14:38:10,1099678
2025-09-11 14:38:10,1099707
2025-09-11 14:38:10,1099776
2025-09-11 14:38:10,1099769
2025-09-11 14:38:10,1099846
2025-09-11 14:38:10,1099851
2025-09-11 14:38:10,1099932
2025-09-11 14:38:10,1100003
2025-09-11 14:38:10,1100039
2025-09-11 14:38:10,1099957
2025-09-11 14:38:10,1100115
2025-09-11 14:38:10,1100108
2025-09-11 14:38:10,1100104
2025-09-11 14:38:10,1100228
2025-09-11 14:38:10,1100236
2025-09-11 14:38:10,1100263
2025-09-11 14:38:10,1100309
2025-09-11 14:38:10,1100346
2025-09-11 14:38:10,1100371
2025-09-11 14:38:10,1100398
2025-09-11 14:38:10,1100442
2025-09-11 14:38:10,1100491
2025-09-11 14:38:10,1100582
2025-09-11 14:38:10,1100640
2025-09-11 14:38:10,1100738
2025-09-11 14:38:10,1100684
2025-09-11 14:38:10,1100750
2025-09-11 14:38:10,1100570
2025-09-11 14:38:10,1100570
2025-09-11 14:38:10,1100543
2025-09-11 14:38:11,1100286
2025-09-11 14:38:11,1100333
2025-09-11 14:38:11,1100171
2025-09-11 14:38:11,1100135
2025-09-11 14:38:11,1100010
2025-09-11 14:38:11,1099953
2025-09-11 14:38:11,1099982
2025-09-11 14:38:11,1100044
2025-09-11 14:38:11,1100028
2025-09-11 14:38:11,1099978
2025-09-11 14:38:11,1100075
2025-09-11 14:38:11,1100139
2025-09-11 14:38:11,1100133
2025-09-11 14:38:11,1100158
2025-09-11 14:38:11,1100114
2025-09-11 14:38:11,1100195
2025-09-11 14:38:11,1100203
2025-09-11 14:38:11,1100152
2025-09-11 14:38:11,1100207
2025-09-11 14:38:11,1100257
2025-09-11 14:38:11,1100270
2025-09-11 14:38:11,1100294
2025-09-11 14:38:11,1100322
2025-09-11 14:38:11,1100313
2025-09-11 14:38:11,1100380
2025-09-11 14:38:11,1100519
2025-09-11 14:38:11,1100490
2025-09-11 14:38:11,1100538
2025-09-11 14:38:11,1100550
2025-09-11 14:38:11,1100549
2025-09-11 14:38:11,1100581
2025-09-11 14:38:11,1100584
2025-09-11 14:38:11,1100625
2025-09-11 14:38:11,1100583
2025-09-11 14:38:11,1100647
2025-09-11 14:38:11,1100605
2025-09-11 14:38:11,1100651
2025-09-11 14:38:11,1100639
2025-09-11 14:38:11,1100669
2025-09-11 14:38:11,1100700
2025-09-11 14:38:11,1100779
2025-09-11 14:38:11,1100795
2025-09-11 14:38:11,1100794
2025-09-11 14:38:11,1100838
2025-09-11 14:38:11,1100909
2025-09-11 14:38:11,1100948
2025-09-11 14:38:11,1100896
2025-09-11 14:38:11,1100960
2025-09-11 14:38:11,1100971
2025-09-11 14:38:11,1101055
2025-09-11 14:38:11,1101092
2025-09-11 14:38:11,1101096
2025-09-11 14:38:11,1101164
2025-09-11 14:38:11,1101341
2025-09-11 14:38:11,1101253
2025-09-11 14:38:11,1101347
2025-09-11 14:38:11,1101448
2025-09-11 14:38:11,1101427
2025-09-11 14:38:11,1101511
2025-09-11 14:38:11,1101448
2025-09-11 14:38:11,1101539
2025-09-11 14:38:11,1101591
2025-09-11 14:38:11,1101720
2025-09-11 14:38:11,1101751
2025-09-11 14:38:11,1101733
2025-09-11 14:38:11,1101782
2025-09-11 14:38:11,1101852
2025-09-11 14:38:11,1101898
2025-09-11 14:38:11,1101943
2025-09-11 14:38:11,1101993
2025-09-11 14:38:11,1102064
2025-09-11 14:38:11,1102084
2025-09-11 14:38:11,1102188
2025-09-11 14:38:11,1102233
2025-09-11 14:38:11,1102256
2025-09-11 14:38:11,1102284
2025-09-11 14:38:11,1102396
2025-09-11 14:38:11,1102440
2025-09-11 14:38:11,1102443
2025-09-11 14:38:11,1102379
2025-09-11 14:38:11,1102258
2025-09-11 14:38:11,1102197
2025-09-11 14:38:11,1102130
2025-09-11 14:38:11,1102083
2025-09-11 14:38:11,1101941
2025-09-11 14:38:11,1101947
2025-09-11 14:38:11,1101886
2025-09-11 14:38:11,1101783
2025-09-11 14:38:11,1101899
2025-09-11 14:38:11,1101923
2025-09-11 14:38:11,1101872
2025-09-11 14:38:11,1101961
2025-09-11 14:38:11,1102003
2025-09-11 14:38:11,1102054
2025-09-11 14:38:11,1102071
2025-09-11 14:38:11,1102150
2025-09-11 14:38:11,1102133
2025-09-11 14:38:11,1102168
2025-09-11 14:38:11,1102199
2025-09-11 14:38:11,1102166
2025-09-11 14:38:12,1102155
2025-09-11 14:38:12,1102235
2025-09-11 14:38:12,1102338
2025-09-11 14:38:12,1102422
2025-09-11 14:38:12,1102432
2025-09-11 14:38:12,1102470
2025-09-11 14:38:12,1102569
2025-09-11 14:38:12,1102615
2025-09-11 14:38:12,1102628
2025-09-11 14:38:12,1102627
2025-09-11 14:38:12,1102662
2025-09-11 14:38:12,1102723
2025-09-11 14:38:12,1102688
2025-09-11 14:38:12,1102739
2025-09-11 14:38:12,1102775
2025-09-11 14:38:12,1102769
2025-09-11 14:38:12,1102789
2025-09-11 14:38:12,1102840
2025-09-11 14:38:12,1102789
2025-09-11 14:38:12,1102850
2025-09-11 14:38:12,1102919
2025-09-11 14:38:12,1102917
2025-09-11 14:38:12,1102950
2025-09-11 14:38:12,1102987
2025-09-11 14:38:12,1103064
2025-09-11 14:38:12,1103026
2025-09-11 14:38:12,1103070
2025-09-11 14:38:12,1103182
2025-09-11 14:38:12,1103143
2025-09-11 14:38:12,1103190
2025-09-11 14:38:12,1103187
2025-09-11 14:38:12,1103234
2025-09-11 14:38:12,1103287
2025-09-11 14:38:12,1103328
2025-09-11 14:38:12,1103368
2025-09-11 14:38:12,1103418
2025-09-11 14:38:12,1103460
2025-09-11 14:38:12,1103567
2025-09-11 14:38:12,1103467
2025-09-11 14:38:12,1103542
2025-09-11 14:38:12,1103573
2025-09-11 14:38:12,1103585
2025-09-11 14:38:12,1103623
2025-09-11 14:38:12,1103668
2025-09-11 14:38:12,1103676
2025-09-11 14:38:12,1103764
2025-09-11 14:38:12,1103757
2025-09-11 14:38:12,1103765
2025-09-11 14:38:12,1103758
2025-09-11 14:38:12,1103881
2025-09-11 14:38:12,1103882
2025-09-11 14:38:12,1103945
2025-09-11 14:38:12,1103875
2025-09-11 14:38:12,1103965
2025-09-11 14:38:12,1104010
2025-09-11 14:38:12,1104015
2025-09-11 14:38:12,1104046
2025-09-11 14:38:12,1104166
2025-09-11 14:38:12,1104108
2025-09-11 14:38:12,1104183
2025-09-11 14:38:12,1104172
2025-09-11 14:38:12,1104168
2025-09-11 14:38:12,1104095
2025-09-11 14:38:12,1104052
2025-09-11 14:38:12,1103900
2025-09-11 14:38:12,1103743
2025-09-11 14:38:12,1103696
2025-09-11 14:38:12,1103579
2025-09-11 14:38:12,1103505
2025-09-11 14:38:12,1103401
2025-09-11 14:38:12,1103384
2025-09-11 14:38:12,1103353
2025-09-11 14:38:12,1103270
2025-09-11 14:38:12,1103364
2025-09-11 14:38:12,1103394
2025-09-11 14:38:12,1103342
2025-09-11 14:38:12,1103414
2025-09-11 14:38:12,1103400
2025-09-11 14:38:12,1103320
2025-09-11 14:38:12,1103391
2025-09-11 14:38:12,1103358
2025-09-11 14:38:12,1103401
2025-09-11 14:38:12,1103352
2025-09-11 14:38:12,1103376
2025-09-11 14:38:12,1103473
2025-09-11 14:38:12,1103431
2025-09-11 14:38:12,1103475
2025-09-11 14:38:12,1103473
2025-09-11 14:38:12,1103524
2025-09-11 14:38:12,1103580
2025-09-11 14:38:12,1103553
2025-09-11 14:38:12,1103618
2025-09-11 14:38:12,1103540
2025-09-11 14:38:12,1103521
2025-09-11 14:38:12,1103553
2025-09-11 14:38:12,1103578
2025-09-11 14:38:12,1103501
2025-09-11 14:38:12,1103566
2025-09-11 14:38:12,1103472
2025-09-11 14:38:12,1103513
2025-09-11 14:38:13,1103545
2025-09-11 14:38:13,1103459
2025-09-11 14:38:13,1103526
2025-09-11 14:38:13,1103561
2025-09-11 14:38:13,1103547
2025-09-11 14:38:13,1103545
2025-09-11 14:38:13,1103490
2025-09-11 14:38:13,1103572
2025-09-11 14:38:13,1103609
2025-09-11 14:38:13,1103578
2025-09-11 14:38:13,1103559
2025-09-11 14:38:13,1103629
2025-09-11 14:38:13,1103680
2025-09-11 14:38:13,1103709
2025-09-11 14:38:13,1103648
2025-09-11 14:38:13,1103748
2025-09-11 14:38:13,1103713
2025-09-11 14:38:13,1103818
2025-09-11 14:38:13,1103719
2025-09-11 14:38:13,1103858
2025-09-11 14:38:13,1103781
2025-09-11 14:38:13,1103833
2025-09-11 14:38:13,1103805
2025-09-11 14:38:13,1103773
2025-09-11 14:38:13,1103855
2025-09-11 14:38:13,1103832
2025-09-11 14:38:13,1103929
2025-09-11 14:38:13,1103926
2025-09-11 14:38:13,1103923
2025-09-11 14:38:13,1103921
2025-09-11 14:38:13,1103973
2025-09-11 14:38:13,1103995
2025-09-11 14:38:13,1103997
2025-09-11 14:38:13,1104057
2025-09-11 14:38:13,1104060
2025-09-11 14:38:13,1104076
2025-09-11 14:38:13,1104110
2025-09-11 14:38:13,1104148
2025-09-11 14:38:13,1104150
2025-09-11 14:38:13,1104125
2025-09-11 14:38:13,1104051
2025-09-11 14:38:13,1103922
2025-09-11 14:38:13,1103872
2025-09-11 14:38:13,1103669
2025-09-11 14:38:13,1103630
2025-09-11 14:38:13,1103424
2025-09-11 14:38:13,1103377
2025-09-11 14:38:13,1103264
2025-09-11 14:38:13,1103193
2025-09-11 14:38:13,1103136
2025-09-11 14:38:13,1103116
2025-09-11 14:38:13,1103130
2025-09-11 14:38:13,1103112
2025-09-11 14:38:13,1103063
2025-09-11 14:38:13,1103110
2025-09-11 14:38:13,1103058
2025-09-11 14:38:13,1103053
2025-09-11 14:38:13,1103031
2025-09-11 14:38:13,1103027
2025-09-11 14:38:13,1102974
2025-09-11 14:38:13,1102979
2025-09-11 14:38:13,1102963
2025-09-11 14:38:13,1102935
2025-09-11 14:38:13,1102940
2025-09-11 14:38:13,1102947
2025-09-11 14:38:13,1103012
2025-09-11 14:38:13,1102998
2025-09-11 14:38:13,1103066
2025-09-11 14:38:13,1103035
2025-09-11 14:38:13,1103090
2025-09-11 14:38:13,1103030
2025-09-11 14:38:13,1102977
2025-09-11 14:38:13,1102863
2025-09-11 14:38:13,1102977
2025-09-11 14:38:13,1102930
2025-09-11 14:38:13,1102893
2025-09-11 14:38:13,1102821
2025-09-11 14:38:13,1102818
2025-09-11 14:38:13,1102822
2025-09-11 14:38:13,1102838
2025-09-11 14:38:13,1102786
2025-09-11 14:38:13,1102842
2025-09-11 14:38:13,1102803
2025-09-11 14:38:13,1102799
2025-09-11 14:38:13,1102830
2025-09-11 14:38:13,1102820
2025-09-11 14:38:13,1102775
2025-09-11 14:38:13,1102854
2025-09-11 14:38:13,1102853
2025-09-11 14:38:13,1102822
2025-09-11 14:38:13,1102909
2025-09-11 14:38:13,1102828
2025-09-11 14:38:13,1102867
2025-09-11 14:38:13,1102972
2025-09-11 14:38:13,1102908
2025-09-11 14:38:13,1102990
2025-09-11 14:38:13,1102968
2025-09-11 14:38:13,1102977
2025-09-11 14:38:13,1102999
2025-09-11 14:38:13,1103014
2025-09-11 14:38:14,1102983
2025-09-11 14:38:14,1103041
2025-09-11 14:38:14,1103070
2025-09-11 14:38:14,1103040
2025-09-11 14:38:14,1103090
2025-09-11 14:38:14,1103124
2025-09-11 14:38:14,1103177
2025-09-11 14:38:14,1103127
2025-09-11 14:38:14,1103139
2025-09-11 14:38:14,1103261
2025-09-11 14:38:14,1103268
2025-09-11 14:38:14,1103324
2025-09-11 14:38:14,1103257
2025-09-11 14:38:14,1103333
2025-09-11 14:38:14,1103330
2025-09-11 14:38:14,1103335
2025-09-11 14:38:14,1103308
2025-09-11 14:38:14,1103165
2025-09-11 14:38:14,1103062
2025-09-11 14:38:14,1102923
2025-09-11 14:38:14,1102762
2025-09-11 14:38:14,1102708
2025-09-11 14:38:14,1102499
2025-09-11 14:38:14,1102434
2025-09-11 14:38:14,1102322
2025-09-11 14:38:14,1102348
2025-09-11 14:38:14,1102261
2025-09-11 14:38:14,1102144
2025-09-11 14:38:14,1102218
2025-09-11 14:38:14,1102168
2025-09-11 14:38:14,1102117
2025-09-11 14:38:14,1102081
2025-09-11 14:38:14,1102078
2025-09-11 14:38:14,1102025
2025-09-11 14:38:14,1102020
2025-09-11 14:38:14,1101967
2025-09-11 14:38:14,1101951
2025-09-11 14:38:14,1101928
2025-09-11 14:38:14,1101844
2025-09-11 14:38:14,1101811
2025-09-11 14:38:14,1101919
2025-09-11 14:38:14,1101815
2025-09-11 14:38:14,1101893
2025-09-11 14:38:14,1101958
2025-09-11 14:38:14,1101901
2025-09-11 14:38:14,1101936
2025-09-11 14:38:14,1101875
2025-09-11 14:38:14,1101905
2025-09-11 14:38:14,1101908
2025-09-11 14:38:14,1101907
2025-09-11 14:38:14,1101840
2025-09-11 14:38:14,1101794
2025-09-11 14:38:14,1101833
2025-09-11 14:38:14,1101736
2025-09-11 14:38:14,1101717
2025-09-11 14:38:14,1101690
2025-09-11 14:38:14,1101727
2025-09-11 14:38:14,1101737
2025-09-11 14:38:14,1101791
2025-09-11 14:38:14,1101762
2025-09-11 14:38:14,1101749
2025-09-11 14:38:14,1101757
2025-09-11 14:38:14,1101784
2025-09-11 14:38:14,1101813
2025-09-11 14:38:14,1101792
2025-09-11 14:38:14,1101823
2025-09-11 14:38:14,1101743
2025-09-11 14:38:14,1101815
2025-09-11 14:38:14,1101821
2025-09-11 14:38:14,1101901
2025-09-11 14:38:14,1101879
2025-09-11 14:38:14,1102006
2025-09-11 14:38:14,1102012
2025-09-11 14:38:14,1102004
2025-09-11 14:38:14,1102046
2025-09-11 14:38:14,1102028
2025-09-11 14:38:14,1102038
2025-09-11 14:38:14,1102078
2025-09-11 14:38:14,1102024
2025-09-11 14:38:14,1102104
2025-09-11 14:38:14,1102135
2025-09-11 14:38:14,1102113
2025-09-11 14:38:14,1102199
2025-09-11 14:38:14,1102188
2025-09-11 14:38:14,1102168
2025-09-11 14:38:14,1102261
2025-09-11 14:38:14,1102298
2025-09-11 14:38:14,1102223
2025-09-11 14:38:14,1102319
2025-09-11 14:38:14,1102344
2025-09-11 14:38:14,1102401
2025-09-11 14:38:14,1102368
2025-09-11 14:38:14,1102449
2025-09-11 14:38:14,1102477
2025-09-11 14:38:14,1102419
2025-09-11 14:38:14,1102268
2025-09-11 14:38:14,1102177
2025-09-11 14:38:14,1102057
2025-09-11 14:38:14,1101917
2025-09-11 14:38:15,1101808
2025-09-11 14:38:15,1101692
2025-09-11 14:38:15,1101547
2025-09-11 14:38:15,1101445
2025-09-11 14:38:15,1101405
2025-09-11 14:38:15,1101363
2025-09-11 14:38:15,1101318
2025-09-11 14:38:15,1101249
2025-09-11 14:38:15,1101242
2025-09-11 14:38:15,1101184
2025-09-11 14:38:15,1101125
2025-09-11 14:38:15,1101105
2025-09-11 14:38:15,1101070
2025-09-11 14:38:15,1100989
2025-09-11 14:38:15,1100928
2025-09-11 14:38:15,1100917
2025-09-11 14:38:15,1100869
2025-09-11 14:38:15,1100831
2025-09-11 14:38:15,1100802
2025-09-11 14:38:15,1100793
2025-09-11 14:38:15,1100833
2025-09-11 14:38:15,1100790
2025-09-11 14:38:15,1100782
2025-09-11 14:38:15,1100767
2025-09-11 14:38:15,1100771
2025-09-11 14:38:15,1100804
2025-09-11 14:38:15,1100735
2025-09-11 14:38:15,1100746
2025-09-11 14:38:15,1100720
2025-09-11 14:38:15,1100661
2025-09-11 14:38:15,1100614
2025-09-11 14:38:15,1100615
2025-09-11 14:38:15,1100572
2025-09-11 14:38:15,1100564
2025-09-11 14:38:15,1100573
2025-09-11 14:38:15,1100570
2025-09-11 14:38:15,1100464
2025-09-11 14:38:15,1100526
2025-09-11 14:38:15,1100533
2025-09-11 14:38:15,1100479
2025-09-11 14:38:15,1100579
2025-09-11 14:38:15,1100480
2025-09-11 14:38:15,1100564
2025-09-11 14:38:15,1100526
2025-09-11 14:38:15,1100496
2025-09-11 14:38:15,1100527
2025-09-11 14:38:15,1100554
2025-09-11 14:38:15,1100565
2025-09-11 14:38:15,1100525
2025-09-11 14:38:15,1100641
2025-09-11 14:38:15,1100627
2025-09-11 14:38:15,1100710
2025-09-11 14:38:15,1100675
2025-09-11 14:38:15,1100726
2025-09-11 14:38:15,1100836
2025-09-11 14:38:15,1100784
2025-09-11 14:38:15,1100812
2025-09-11 14:38:15,1100774
2025-09-11 14:38:15,1100813
2025-09-11 14:38:15,1100794
2025-09-11 14:38:15,1100861
2025-09-11 14:38:15,1100961
2025-09-11 14:38:15,1100991
2025-09-11 14:38:15,1101061
2025-09-11 14:38:15,1101042
2025-09-11 14:38:15,1101111
2025-09-11 14:38:15,1101137
2025-09-11 14:38:15,1101189
2025-09-11 14:38:15,1101243
2025-09-11 14:38:15,1101343
2025-09-11 14:38:15,1101379
2025-09-11 14:38:15,1101329
2025-09-11 14:38:15,1101431
2025-09-11 14:38:15,1101457
2025-09-11 14:38:15,1101353
2025-09-11 14:38:15,1101335
2025-09-11 14:38:15,1101259
2025-09-11 14:38:15,1101130
2025-09-11 14:38:15,1101019
2025-09-11 14:38:15,1100946
2025-09-11 14:38:15,1100745
2025-09-11 14:38:15,1100653
2025-09-11 14:38:13,1100576
2025-09-11 14:38:15,1100428
2025-09-11 14:38:15,1100330
2025-09-11 14:38:15,1100267
2025-09-11 14:38:15,1100200
2025-09-11 14:38:15,1100090
2025-09-11 14:38:15,1099963
2025-09-11 14:38:15,1099937
2025-09-11 14:38:15,1099810
2025-09-11 14:38:15,1099683
2025-09-11 14:38:15,1099626
2025-09-11 14:38:15,1099473
2025-09-11 14:38:15,1099352
2025-09-11 14:38:15,1099296
2025-09-11 14:38:15,1099201
2025-09-11 14:38:15,1099115
2025-09-11 14:38:15,1099094
2025-09-11 14:38:15,1099046
2025-09-11 14:38:16,1099099
2025-09-11 14:38:16,1099053
2025-09-11 14:38:16,1098968
2025-09-11 14:38:16,1098970
2025-09-11 14:38:16,1098855
2025-09-11 14:38:16,1098847
2025-09-11 14:38:16,1098786
2025-09-11 14:38:16,1098782
2025-09-11 14:38:16,1098750
2025-09-11 14:38:16,1098723
2025-09-11 14:38:16,1098707
2025-09-11 14:38:16,1098690
2025-09-11 14:38:16,1098576
2025-09-11 14:38:16,1098620
2025-09-11 14:38:16,1098595
2025-09-11 14:38:16,1098597
2025-09-11 14:38:16,1098522
2025-09-11 14:38:16,1098560
2025-09-11 14:38:16,1098524
2025-09-11 14:38:16,1098584
2025-09-11 14:38:16,1098572
2025-09-11 14:38:16,1098500
2025-09-11 14:38:16,1098505
2025-09-11 14:38:16,1098531
2025-09-11 14:38:16,1098497
2025-09-11 14:38:16,1098518
2025-09-11 14:38:16,1098567
2025-09-11 14:38:16,1098592
2025-09-11 14:38:16,1098680
2025-09-11 14:38:16,1098662
2025-09-11 14:38:16,1098680
2025-09-11 14:38:16,1098707
2025-09-11 14:38:16,1098769
2025-09-11 14:38:16,1098749
2025-09-11 14:38:16,1098764
2025-09-11 14:38:16,1098812
2025-09-11 14:38:16,1098853
2025-09-11 14:38:16,1098880
2025-09-11 14:38:16,1098905
2025-09-11 14:38:16,1098922
2025-09-11 14:38:16,1098944
2025-09-11 14:38:16,1099007
2025-09-11 14:38:16,1099053
2025-09-11 14:38:16,1099144
2025-09-11 14:38:16,1099163
2025-09-11 14:38:16,1099198
2025-09-11 14:38:16,1099254
2025-09-11 14:38:16,1099280
2025-09-11 14:38:16,1099409
2025-09-11 14:38:16,1099491
2025-09-11 14:38:16,1099434
2025-09-11 14:38:16,1099419
2025-09-11 14:38:16,1099388
2025-09-11 14:38:16,1099367
2025-09-11 14:38:16,1099320
2025-09-11 14:38:16,1099211
2025-09-11 14:38:16,1099144
2025-09-11 14:38:16,1098990
2025-09-11 14:38:16,1098910
2025-09-11 14:38:16,1098760
2025-09-11 14:38:16,1098610
2025-09-11 14:38:16,1098478
2025-09-11 14:38:16,1098418
2025-09-11 14:38:16,1098307
2025-09-11 14:38:16,1098136
2025-09-11 14:38:16,1097982
2025-09-11 14:38:16,1097978
2025-09-11 14:38:16,1097807
2025-09-11 14:38:16,1097640
2025-09-11 14:38:16,1097487
2025-09-11 14:38:16,1097346
2025-09-11 14:38:16,1097280
2025-09-11 14:38:16,1097099
2025-09-11 14:38:16,1097094
2025-09-11 14:38:16,1097018
2025-09-11 14:38:16,1096949
2025-09-11 14:38:16,1096922
2025-09-11 14:38:16,1096839
2025-09-11 14:38:16,1096852
2025-09-11 14:38:16,1096838
2025-09-11 14:38:16,1096797
2025-09-11 14:38:16,1096740
2025-09-11 14:38:16,1096699
2025-09-11 14:38:16,1096661
2025-09-11 14:38:16,1096602
2025-09-11 14:38:16,1096563
2025-09-11 14:38:16,1096535
2025-09-11 14:38:16,1096512
2025-09-11 14:38:16,1096442
2025-09-11 14:38:16,1096415
2025-09-11 14:38:16,1096372
2025-09-11 14:38:16,1096375
2025-09-11 14:38:16,1096350
2025-09-11 14:38:16,1096334
2025-09-11 14:38:16,1096358
2025-09-11 14:38:16,1096346
2025-09-11 14:38:16,1096354
2025-09-11 14:38:16,1096339
2025-09-11 14:38:16,1096388
2025-09-11 14:38:16,1096382
2025-09-11 14:38:17,1096353
2025-09-11 14:38:17,1096329
2025-09-11 14:38:17,1096301
2025-09-11 14:38:17,1096395
2025-09-11 14:38:17,1096516
2025-09-11 14:38:17,1096503
2025-09-11 14:38:17,1096540
2025-09-11 14:38:17,1096537
2025-09-11 14:38:17,1096605
2025-09-11 14:38:17,1096649
2025-09-11 14:38:17,1096665
2025-09-11 14:38:17,1096688
2025-09-11 14:38:17,1096704
2025-09-11 14:38:17,1096694
2025-09-11 14:38:17,1096726
2025-09-11 14:38:17,1096789
2025-09-11 14:38:17,1096893
2025-09-11 14:38:17,1096951
2025-09-11 14:38:17,1096947
2025-09-11 14:38:17,1097082
2025-09-11 14:38:17,1097121
2025-09-11 14:38:17,1097167
2025-09-11 14:38:17,1097253
2025-09-11 14:38:17,1097343
2025-09-11 14:38:17,1097408
2025-09-11 14:38:17,1097406
2025-09-11 14:38:17,1097536
2025-09-11 14:38:17,1097542
2025-09-11 14:38:17,1097520
2025-09-11 14:38:17,1097476
2025-09-11 14:38:17,1097417
2025-09-11 14:38:17,1097348
2025-09-11 14:38:17,1097237
2025-09-11 14:38:17,1097053
2025-09-11 14:38:17,1096995
2025-09-11 14:38:17,1096875
2025-09-11 14:38:17,1096723
2025-09-11 14:38:17,1096640
2025-09-11 14:38:17,1096558
2025-09-11 14:38:17,1096366
2025-09-11 14:38:17,1096289
2025-09-11 14:38:17,1096117
2025-09-11 14:38:17,1096028
2025-09-11 14:38:17,1095943
2025-09-11 14:38:17,1095804
2025-09-11 14:38:17,1095689
2025-09-11 14:38:17,1095519
2025-09-11 14:38:17,1095474
2025-09-11 14:38:17,1095394
2025-09-11 14:38:17,1095400
2025-09-11 14:38:17,1095351
2025-09-11 14:38:17,1095352
2025-09-11 14:38:17,1095336
2025-09-11 14:38:17,1095361
2025-09-11 14:38:17,1095294
2025-09-11 14:38:17,1095231
2025-09-11 14:38:17,1095314
2025-09-11 14:38:17,1095308
2025-09-11 14:38:17,1095246
2025-09-11 14:38:17,1095225
2025-09-11 14:38:17,1095177
2025-09-11 14:38:17,1095183
2025-09-11 14:38:17,1095079
2025-09-11 14:38:17,1095104
2025-09-11 14:38:17,1095080
2025-09-11 14:38:17,1095064
2025-09-11 14:38:17,1095062
2025-09-11 14:38:17,1095066
2025-09-11 14:38:17,1095067
2025-09-11 14:38:17,1095084
2025-09-11 14:38:17,1095091
2025-09-11 14:38:17,1095161
2025-09-11 14:38:17,1095125
2025-09-11 14:38:17,1095202
2025-09-11 14:38:17,1095209
2025-09-11 14:38:17,1095230
2025-09-11 14:38:17,1095253
2025-09-11 14:38:17,1095224
2025-09-11 14:38:17,1095295
2025-09-11 14:38:17,1095386
2025-09-11 14:38:17,1095411
2025-09-11 14:38:17,1095442
2025-09-11 14:38:17,1095475
2025-09-11 14:38:17,1095498
2025-09-11 14:38:17,1095546
2025-09-11 14:38:17,1095572
2025-09-11 14:38:17,1095667
2025-09-11 14:38:17,1095695
2025-09-11 14:38:17,1095803
2025-09-11 14:38:17,1095838
2025-09-11 14:38:17,1095824
2025-09-11 14:38:17,1095968
2025-09-11 14:38:17,1096055
2025-09-11 14:38:17,1096075
2025-09-11 14:38:17,1096181
2025-09-11 14:38:17,1096128
2025-09-11 14:38:17,1096244
2025-09-11 14:38:17,1096263
2025-09-11 14:38:17,1096416
2025-09-11 14:38:17,1096419
2025-09-11 14:38:18,1096430
2025-09-11 14:38:18,1096402
2025-09-11 14:38:18,1096374
2025-09-11 14:38:18,1096250
2025-09-11 14:38:18,1096134
2025-09-11 14:38:18,1096065
2025-09-11 14:38:18,1095922
2025-09-11 14:38:18,1095815
2025-09-11 14:38:18,1095692
2025-09-11 14:38:18,1095488
2025-09-11 14:38:18,1095332
2025-09-11 14:38:18,1095245
2025-09-11 14:38:18,1095113
2025-09-11 14:38:18,1094991
2025-09-11 14:38:18,1094864
2025-09-11 14:38:18,1094723
2025-09-11 14:38:18,1094500
2025-09-11 14:38:18,1094380
2025-09-11 14:38:18,1094199
2025-09-11 14:38:18,1094157
2025-09-11 14:38:18,1094041
2025-09-11 14:38:18,1093997
2025-09-11 14:38:18,1093936
2025-09-11 14:38:18,1093912
2025-09-11 14:38:18,1093842
2025-09-11 14:38:18,1093867
2025-09-11 14:38:18,1093807
2025-09-11 14:38:18,1093810
2025-09-11 14:38:18,1093801
2025-09-11 14:38:18,1093754
2025-09-11 14:38:18,1093702
2025-09-11 14:38:18,1093730
2025-09-11 14:38:18,1093720
2025-09-11 14:38:18,1093731
2025-09-11 14:38:18,1093732
2025-09-11 14:38:18,1093730
2025-09-11 14:38:18,1093658
2025-09-11 14:38:18,1093674
2025-09-11 14:38:18,1093601
2025-09-11 14:38:18,1093664
2025-09-11 14:38:18,1093664
2025-09-11 14:38:18,1093641
2025-09-11 14:38:18,1093667
2025-09-11 14:38:18,1093650
2025-09-11 14:38:18,1093697
2025-09-11 14:38:18,1093717
2025-09-11 14:38:18,1093803
2025-09-11 14:38:18,1093740
2025-09-11 14:38:18,1093770
2025-09-11 14:38:18,1093754
2025-09-11 14:38:18,1093778
2025-09-11 14:38:18,1093799
2025-09-11 14:38:18,1093885
2025-09-11 14:38:18,1093963
2025-09-11 14:38:18,1093955
2025-09-11 14:38:18,1094043
2025-09-11 14:38:18,1094162
2025-09-11 14:38:18,1094151
2025-09-11 14:38:18,1094169
2025-09-11 14:38:18,1094160
2025-09-11 14:38:18,1094282
2025-09-11 14:38:18,1094265
2025-09-11 14:38:18,1094320
2025-09-11 14:38:18,1094347
2025-09-11 14:38:18,1094447
2025-09-11 14:38:18,1094470
2025-09-11 14:38:18,1094578
2025-09-11 14:38:18,1094666
2025-09-11 14:38:18,1094736
2025-09-11 14:38:18,1094834
2025-09-11 14:38:18,1094880
2025-09-11 14:38:18,1094973
2025-09-11 14:38:18,1094978
2025-09-11 14:38:18,1095052
2025-09-11 14:38:18,1095057
2025-09-11 14:38:18,1094946
2025-09-11 14:38:18,1094886
2025-09-11 14:38:18,1094834
2025-09-11 14:38:18,1094774
2025-09-11 14:38:18,1094667
2025-09-11 14:38:18,1094621
2025-09-11 14:38:18,1094443
2025-09-11 14:38:18,1094378
2025-09-11 14:38:18,1094192
2025-09-11 14:38:18,1094042
2025-09-11 14:38:18,1093949
2025-09-11 14:38:18,1093784
2025-09-11 14:38:18,1093666
2025-09-11 14:38:18,1093514
2025-09-11 14:38:18,1093434
2025-09-11 14:38:18,1093373
2025-09-11 14:38:18,1093200
2025-09-11 14:38:18,1093117
2025-09-11 14:38:18,1092940
2025-09-11 14:38:18,1092857
2025-09-11 14:38:18,1092845
2025-09-11 14:38:18,1092820
2025-09-11 14:38:18,1092704
2025-09-11 14:38:18,1092747
2025-09-11 14:38:18,1092692
2025-09-11 14:38:19,1092781
2025-09-11 14:38:19,1092733
2025-09-11 14:38:19,1092700
2025-09-11 14:38:19,1092763
2025-09-11 14:38:19,1092734
2025-09-11 14:38:19,1092724
2025-09-11 14:38:19,1092719
2025-09-11 14:38:19,1092788
2025-09-11 14:38:19,1092770
2025-09-11 14:38:19,1092725
2025-09-11 14:38:19,1092726
2025-09-11 14:38:19,1092811
2025-09-11 14:38:19,1092820
2025-09-11 14:38:19,1092795
2025-09-11 14:38:19,1092866
2025-09-11 14:38:19,1092872
2025-09-11 14:38:19,1092929
2025-09-11 14:38:19,1092978
2025-09-11 14:38:19,1092983
2025-09-11 14:38:19,1092991
2025-09-11 14:38:19,1093022
2025-09-11 14:38:19,1093091
2025-09-11 14:38:19,1093120
2025-09-11 14:38:19,1093128
2025-09-11 14:38:19,1093200
2025-09-11 14:38:19,1093219
2025-09-11 14:38:19,1093289
2025-09-11 14:38:19,1093402
2025-09-11 14:38:19,1093455
2025-09-11 14:38:19,1093505
2025-09-11 14:38:19,1093526
2025-09-11 14:38:19,1093626
2025-09-11 14:38:19,1093725
2025-09-11 14:38:19,1093656
2025-09-11 14:38:19,1093781
2025-09-11 14:38:19,1093807
2025-09-11 14:38:19,1093881
2025-09-11 14:38:19,1093977
2025-09-11 14:38:19,1094007
2025-09-11 14:38:19,1094063
2025-09-11 14:38:19,1094190
2025-09-11 14:38:19,1094383
2025-09-11 14:38:19,1094364
2025-09-11 14:38:19,1094476
2025-09-11 14:38:19,1094486
2025-09-11 14:38:19,1094570
2025-09-11 14:38:19,1094691
2025-09-11 14:38:19,1094757
2025-09-11 14:38:19,1094828
2025-09-11 14:38:19,1094852
2025-09-11 14:38:19,1094805
2025-09-11 14:38:19,1094869
2025-09-11 14:38:19,1094771
2025-09-11 14:38:19,1094648
2025-09-11 14:38:19,1094675
2025-09-11 14:38:19,1094605
2025-09-11 14:38:19,1094516
2025-09-11 14:38:19,1094439
2025-09-11 14:38:19,1094295
2025-09-11 14:38:19,1094240
2025-09-11 14:38:19,1094098
2025-09-11 14:38:19,1094050
2025-09-11 14:38:19,1093927
2025-09-11 14:38:19,1093849
2025-09-11 14:38:19,1093823
2025-09-11 14:38:19,1093636
2025-09-11 14:38:19,1093624
2025-09-11 14:38:19,1093566
2025-09-11 14:38:19,1093358
2025-09-11 14:38:19,1093387
2025-09-11 14:38:19,1093297
2025-09-11 14:38:19,1093249
2025-09-11 14:38:19,1093272
2025-09-11 14:38:19,1093202
2025-09-11 14:38:19,1093247
2025-09-11 14:38:19,1093330
2025-09-11 14:38:19,1093382
2025-09-11 14:38:19,1093372
2025-09-11 14:38:19,1093367
2025-09-11 14:38:19,1093332
2025-09-11 14:38:19,1093393
2025-09-11 14:38:19,1093414
2025-09-11 14:38:19,1093430
2025-09-11 14:38:19,1093427
2025-09-11 14:38:19,1093422
2025-09-11 14:38:19,1093469
2025-09-11 14:38:19,1093465
2025-09-11 14:38:19,1093421
2025-09-11 14:38:19,1093469
2025-09-11 14:38:19,1093523
2025-09-11 14:38:19,1093497
2025-09-11 14:38:19,1093553
2025-09-11 14:38:19,1093630
2025-09-11 14:38:19,1093654
2025-09-11 14:38:19,1093699
2025-09-11 14:38:19,1093726
2025-09-11 14:38:19,1093755
2025-09-11 14:38:19,1093783
2025-09-11 14:38:19,1093779
2025-09-11 14:38:19,1093825
2025-09-11 14:38:20,1093886
2025-09-11 14:38:20,1093962
2025-09-11 14:38:20,1094014
2025-09-11 14:38:20,1094050
2025-09-11 14:38:20,1094128
2025-09-11 14:38:20,1094171
2025-09-11 14:38:20,1094287
2025-09-11 14:38:20,1094321
2025-09-11 14:38:20,1094283
2025-09-11 14:38:20,1094392
2025-09-11 14:38:20,1094439
2025-09-11 14:38:20,1094427
2025-09-11 14:38:20,1094544
2025-09-11 14:38:20,1094576
2025-09-11 14:38:20,1094652
2025-09-11 14:38:20,1094746
2025-09-11 14:38:20,1094794
2025-09-11 14:38:20,1094912
2025-09-11 14:38:20,1095009
2025-09-11 14:38:20,1095063
2025-09-11 14:38:20,1095154
2025-09-11 14:38:20,1095239
2025-09-11 14:38:20,1095304
2025-09-11 14:38:20,1095392
2025-09-11 14:38:20,1095294
2025-09-11 14:38:20,1095421
2025-09-11 14:38:20,1095372
2025-09-11 14:38:20,1095333
2025-09-11 14:38:20,1095248
2025-09-11 14:38:20,1095279
2025-09-11 14:38:20,1095176
2025-09-11 14:38:20,1095169
2025-09-11 14:38:20,1095073
2025-09-11 14:38:20,1094970
2025-09-11 14:38:20,1094871
2025-09-11 14:38:20,1094743
2025-09-11 14:38:20,1094758
2025-09-11 14:38:20,1094583
2025-09-11 14:38:20,1094571
2025-09-11 14:38:20,1094543
2025-09-11 14:38:20,1094367
2025-09-11 14:38:20,1094304
2025-09-11 14:38:20,1094234
2025-09-11 14:38:20,1094185
2025-09-11 14:38:20,1094070
2025-09-11 14:38:20,1094002
2025-09-11 14:38:20,1094016
2025-09-11 14:38:20,1093854
2025-09-11 14:38:20,1093899
2025-09-11 14:38:20,1093969
2025-09-11 14:38:20,1094031
2025-09-11 14:38:20,1093977
2025-09-11 14:38:20,1093991
2025-09-11 14:38:20,1093957
2025-09-11 14:38:20,1094084
2025-09-11 14:38:20,1094018
2025-09-11 14:38:20,1094130
2025-09-11 14:38:20,1094081
2025-09-11 14:38:20,1094011
2025-09-11 14:38:20,1094043
2025-09-11 14:38:20,1094020
2025-09-11 14:38:20,1094049
2025-09-11 14:38:20,1093998
2025-09-11 14:38:20,1094020
2025-09-11 14:38:20,1094016
2025-09-11 14:38:20,1093986
2025-09-11 14:38:20,1094098
2025-09-11 14:38:20,1094089
2025-09-11 14:38:20,1094143
2025-09-11 14:38:20,1094165
2025-09-11 14:38:20,1094196
2025-09-11 14:38:20,1094162
2025-09-11 14:38:20,1094190
2025-09-11 14:38:20,1094226
2025-09-11 14:38:20,1094305
2025-09-11 14:38:20,1094271
2025-09-11 14:38:20,1094282
2025-09-11 14:38:20,1094350
2025-09-11 14:38:20,1094409
2025-09-11 14:38:20,1094496
2025-09-11 14:38:20,1094492
2025-09-11 14:38:20,1094531
2025-09-11 14:38:20,1094587
2025-09-11 14:38:20,1094624
2025-09-11 14:38:20,1094664
2025-09-11 14:38:20,1094680
2025-09-11 14:38:20,1094764
2025-09-11 14:38:20,1094753
2025-09-11 14:38:20,1094808
2025-09-11 14:38:20,1094835
2025-09-11 14:38:20,1094903
2025-09-11 14:38:20,1094970
2025-09-11 14:38:20,1095052
2025-09-11 14:38:20,1095040
2025-09-11 14:38:20,1095115
2025-09-11 14:38:20,1095119
2025-09-11 14:38:20,1095207
2025-09-11 14:38:20,1095251
2025-09-11 14:38:20,1095313
2025-09-11 14:38:20,1095350
2025-09-11 14:38:21,1095354
2025-09-11 14:38:21,1095414
2025-09-11 14:38:21,1095483
2025-09-11 14:38:21,1095485
2025-09-11 14:38:21,1095477
2025-09-11 14:38:21,1095347
2025-09-11 14:38:21,1095280
2025-09-11 14:38:21,1095206
2025-09-11 14:38:21,1094995
2025-09-11 14:38:21,1094985
2025-09-11 14:38:21,1094808
2025-09-11 14:38:21,1094795
2025-09-11 14:38:21,1094655
2025-09-11 14:38:21,1094570
2025-09-11 14:38:21,1094468
2025-09-11 14:38:21,1094483
2025-09-11 14:38:21,1094394
2025-09-11 14:38:21,1094309
2025-09-11 14:38:21,1094303
2025-09-11 14:38:21,1094223
2025-09-11 14:38:21,1094167
2025-09-11 14:38:21,1094073
2025-09-11 14:38:21,1094035
2025-09-11 14:38:21,1094004
2025-09-11 14:38:21,1094044
2025-09-11 14:38:21,1093996
2025-09-11 14:38:21,1094047
2025-09-11 14:38:21,1094006
2025-09-11 14:38:21,1094000
2025-09-11 14:38:21,1094112
2025-09-11 14:38:21,1094083
2025-09-11 14:38:21,1094125
2025-09-11 14:38:21,1094144
2025-09-11 14:38:21,1094060
2025-09-11 14:38:21,1094120
2025-09-11 14:38:21,1094084
2025-09-11 14:38:21,1094042
2025-09-11 14:38:21,1094054
2025-09-11 14:38:21,1093998
2025-09-11 14:38:21,1094050
2025-09-11 14:38:21,1093988
2025-09-11 14:38:21,1094087
2025-09-11 14:38:21,1094186
2025-09-11 14:38:21,1094119
2025-09-11 14:38:21,1094171
2025-09-11 14:38:21,1094277
2025-09-11 14:38:21,1094230
2025-09-11 14:38:21,1094313
2025-09-11 14:38:21,1094352
2025-09-11 14:38:21,1094330
2025-09-11 14:38:21,1094265
2025-09-11 14:38:21,1094363
2025-09-11 14:38:21,1094407
2025-09-11 14:38:21,1094414
2025-09-11 14:38:21,1094531
2025-09-11 14:38:21,1094625
2025-09-11 14:38:21,1094593
2025-09-11 14:38:21,1094633
2025-09-11 14:38:21,1094675
2025-09-11 14:38:21,1094722
2025-09-11 14:38:21,1094828
2025-09-11 14:38:21,1094816
2025-09-11 14:38:21,1094864
2025-09-11 14:38:21,1094889
2025-09-11 14:38:21,1094941
2025-09-11 14:38:21,1095060
2025-09-11 14:38:21,1095165
2025-09-11 14:38:21,1095187
2025-09-11 14:38:21,1095287
2025-09-11 14:38:21,1095364
2025-09-11 14:38:21,1095456
2025-09-11 14:38:21,1095491
2025-09-11 14:38:21,1095585
2025-09-11 14:38:21,1095743
2025-09-11 14:38:21,1095655
2025-09-11 14:38:21,1095815
2025-09-11 14:38:21,1095841
2025-09-11 14:38:21,1095878
2025-09-11 14:38:21,1095777
2025-09-11 14:38:21,1095833
2025-09-11 14:38:21,1095688
2025-09-11 14:38:21,1095677
2025-09-11 14:38:21,1095535
2025-09-11 14:38:21,1095513
2025-09-11 14:38:21,1095357
2025-09-11 14:38:21,1095312
2025-09-11 14:38:21,1095208
2025-09-11 14:38:21,1095174
2025-09-11 14:38:21,1095119
2025-09-11 14:38:21,1095069
2025-09-11 14:38:21,1094980
2025-09-11 14:38:21,1094908
2025-09-11 14:38:21,1094798
2025-09-11 14:38:21,1094633
2025-09-11 14:38:21,1094575
2025-09-11 14:38:21,1094547
2025-09-11 14:38:21,1094503
2025-09-11 14:38:21,1094488
2025-09-11 14:38:21,1094507
2025-09-11 14:38:21,1094557
2025-09-11 14:38:22,1094449
2025-09-11 14:38:22,1094465
2025-09-11 14:38:22,1094479
2025-09-11 14:38:22,1094470
2025-09-11 14:38:22,1094452
2025-09-11 14:38:22,1094451
2025-09-11 14:38:22,1094407
2025-09-11 14:38:22,1094479
2025-09-11 14:38:22,1094391
2025-09-11 14:38:22,1094416
2025-09-11 14:38:22,1094300
2025-09-11 14:38:22,1094346
2025-09-11 14:38:22,1094301
2025-09-11 14:38:22,1094276
2025-09-11 14:38:22,1094352
2025-09-11 14:38:22,1094296
2025-09-11 14:38:22,1094385
2025-09-11 14:38:22,1094423
2025-09-11 14:38:22,1094478
2025-09-11 14:38:22,1094435
2025-09-11 14:38:22,1094503
2025-09-11 14:38:22,1094505
2025-09-11 14:38:22,1094508
2025-09-11 14:38:22,1094382
2025-09-11 14:38:22,1094428
2025-09-11 14:38:22,1094421
2025-09-11 14:38:22,1094411
2025-09-11 14:38:22,1094421
2025-09-11 14:38:22,1094431
2025-09-11 14:38:22,1094534
2025-09-11 14:38:22,1094590
2025-09-11 14:38:22,1094605
2025-09-11 14:38:22,1094607
2025-09-11 14:38:22,1094585
2025-09-11 14:38:22,1094662
2025-09-11 14:38:22,1094715
2025-09-11 14:38:22,1094618
2025-09-11 14:38:22,1094697
2025-09-11 14:38:22,1094720
2025-09-11 14:38:22,1094776
2025-09-11 14:38:22,1094834
2025-09-11 14:38:22,1094853
2025-09-11 14:38:22,1094903
2025-09-11 14:38:22,1094905
2025-09-11 14:38:22,1094956
2025-09-11 14:38:22,1095035
2025-09-11 14:38:22,1095023
2025-09-11 14:38:22,1095073
2025-09-11 14:38:22,1095118
2025-09-11 14:38:22,1095095
2025-09-11 14:38:22,1095083
2025-09-11 14:38:22,1095086
2025-09-11 14:38:22,1095053
2025-09-11 14:38:22,1095037
2025-09-11 14:38:22,1094887
2025-09-11 14:38:22,1094774
2025-09-11 14:38:22,1094690
2025-09-11 14:38:22,1094622
2025-09-11 14:38:22,1094434
2025-09-11 14:38:22,1094280
2025-09-11 14:38:22,1094135
2025-09-11 14:38:22,1093983
2025-09-11 14:38:22,1093828
2025-09-11 14:38:22,1093737
2025-09-11 14:38:22,1093630
2025-09-11 14:38:22,1093546
2025-09-11 14:38:22,1093341
2025-09-11 14:38:22,1093291
2025-09-11 14:38:22,1093131
2025-09-11 14:38:22,1093059
2025-09-11 14:38:22,1092954
2025-09-11 14:38:22,1092849
2025-09-11 14:38:22,1092755
2025-09-11 14:38:22,1092706
2025-09-11 14:38:22,1092706
2025-09-11 14:38:22,1092673
2025-09-11 14:38:22,1092659
2025-09-11 14:38:22,1092650
2025-09-11 14:38:22,1092547
2025-09-11 14:38:22,1092517
2025-09-11 14:38:22,1092583
2025-09-11 14:38:22,1092481
2025-09-11 14:38:22,1092478
2025-09-11 14:38:22,1092434
2025-09-11 14:38:22,1092489
2025-09-11 14:38:22,1092496
2025-09-11 14:38:22,1092477
2025-09-11 14:38:22,1092440
2025-09-11 14:38:22,1092363
2025-09-11 14:38:22,1092348
2025-09-11 14:38:22,1092342
2025-09-11 14:38:22,1092317
2025-09-11 14:38:22,1092385
2025-09-11 14:38:22,1092406
2025-09-11 14:38:22,1092428
2025-09-11 14:38:22,1092349
2025-09-11 14:38:22,1092426
2025-09-11 14:38:22,1092333
2025-09-11 14:38:22,1092357
2025-09-11 14:38:22,1092338
2025-09-11 14:38:23,1092347
2025-09-11 14:38:23,1092331
2025-09-11 14:38:23,1092323
2025-09-11 14:38:23,1092328
2025-09-11 14:38:23,1092413
2025-09-11 14:38:23,1092377
2025-09-11 14:38:23,1092439
2025-09-11 14:38:23,1092460
2025-09-11 14:38:23,1092474
2025-09-11 14:38:23,1092530
2025-09-11 14:38:23,1092479
2025-09-11 14:38:23,1092512
2025-09-11 14:38:23,1092547
2025-09-11 14:38:23,1092547
2025-09-11 14:38:23,1092519
2025-09-11 14:38:23,1092602
2025-09-11 14:38:23,1092624
2025-09-11 14:38:23,1092665
2025-09-11 14:38:23,1092712
2025-09-11 14:38:23,1092710
2025-09-11 14:38:23,1092747
2025-09-11 14:38:23,1092811
2025-09-11 14:38:23,1092860
2025-09-11 14:38:23,1092899
2025-09-11 14:38:23,1092898
2025-09-11 14:38:23,1092942
2025-09-11 14:38:23,1092921
2025-09-11 14:38:23,1092875
2025-09-11 14:38:23,1092904
2025-09-11 14:38:23,1092862
2025-09-11 14:38:23,1092751
2025-09-11 14:38:23,1092697
2025-09-11 14:38:23,1092583
2025-09-11 14:38:23,1092503
2025-09-11 14:38:23,1092275
2025-09-11 14:38:23,1092087
2025-09-11 14:38:23,1091958
2025-09-11 14:38:23,1091876
2025-09-11 14:38:23,1091647
2025-09-11 14:38:23,1091598
2025-09-11 14:38:23,1091428
2025-09-11 14:38:23,1091315
2025-09-11 14:38:23,1091181
2025-09-11 14:38:23,1091000
2025-09-11 14:38:23,1090929
2025-09-11 14:38:23,1090813
2025-09-11 14:38:23,1090714
2025-09-11 14:38:23,1090611
2025-09-11 14:38:23,1090559
2025-09-11 14:38:23,1090525
2025-09-11 14:38:23,1090467
2025-09-11 14:38:23,1090458
2025-09-11 14:38:23,1090447
2025-09-11 14:38:23,1090510
2025-09-11 14:38:23,1090408
2025-09-11 14:38:23,1090416
2025-09-11 14:38:23,1090315
2025-09-11 14:38:23,1090369
2025-09-11 14:38:23,1090367
2025-09-11 14:38:23,1090377
2025-09-11 14:38:23,1090280
2025-09-11 14:38:23,1090335
2025-09-11 14:38:23,1090264
2025-09-11 14:38:23,1090252
2025-09-11 14:38:23,1090260
2025-09-11 14:38:23,1090272
2025-09-11 14:38:23,1090256
2025-09-11 14:38:23,1090338
2025-09-11 14:38:23,1090286
2025-09-11 14:38:23,1090340
2025-09-11 14:38:23,1090399
2025-09-11 14:38:23,1090373
2025-09-11 14:38:23,1090357
2025-09-11 14:38:23,1090393
2025-09-11 14:38:23,1090381
2025-09-11 14:38:23,1090410
2025-09-11 14:38:23,1090384
2025-09-11 14:38:23,1090403
2025-09-11 14:38:23,1090472
2025-09-11 14:38:23,1090459
2025-09-11 14:38:23,1090455
2025-09-11 14:38:23,1090519
2025-09-11 14:38:23,1090685
2025-09-11 14:38:23,1090658
2025-09-11 14:38:23,1090683
2025-09-11 14:38:23,1090642
2025-09-11 14:38:23,1090682
2025-09-11 14:38:23,1090704
2025-09-11 14:38:23,1090751
2025-09-11 14:38:23,1090747
2025-09-11 14:38:23,1090847
2025-09-11 14:38:23,1090892
2025-09-11 14:38:23,1090906
2025-09-11 14:38:23,1091027
2025-09-11 14:38:23,1091049
2025-09-11 14:38:23,1091118
2025-09-11 14:38:23,1091133
2025-09-11 14:38:23,1091248
2025-09-11 14:38:23,1091428
2025-09-11 14:38:23,1091420
2025-09-11 14:38:24,1091396
2025-09-11 14:38:24,1091473
2025-09-11 14:38:24,1091527
2025-09-11 14:38:24,1091605
2025-09-11 14:38:24,1091662
2025-09-11 14:38:24,1091718
2025-09-11 14:38:24,1091704
2025-09-11 14:38:24,1091722
2025-09-11 14:38:24,1091678
2025-09-11 14:38:24,1091509
2025-09-11 14:38:24,1091382
2025-09-11 14:38:24,1091321
2025-09-11 14:38:24,1091189
2025-09-11 14:38:24,1091045
2025-09-11 14:38:24,1090853
2025-09-11 14:38:24,1090723
2025-09-11 14:38:24,1090617
2025-09-11 14:38:24,1090550
2025-09-11 14:38:24,1090481
2025-09-11 14:38:24,1090347
2025-09-11 14:38:24,1090257
2025-09-11 14:38:24,1090055
2025-09-11 14:38:24,1090076
2025-09-11 14:38:24,1089971
2025-09-11 14:38:24,1089938
2025-09-11 14:38:24,1089978
2025-09-11 14:38:24,1089871
2025-09-11 14:38:24,1089932
2025-09-11 14:38:24,1089900
2025-09-11 14:38:24,1089948
2025-09-11 14:38:24,1089992
2025-09-11 14:38:24,1089922
2025-09-11 14:38:24,1090015
2025-09-11 14:38:24,1089902
2025-09-11 14:38:24,1089938
2025-09-11 14:38:24,1089959
2025-09-11 14:38:24,1089968
2025-09-11 14:38:24,1089945
2025-09-11 14:38:24,1089909
2025-09-11 14:38:24,1089975
2025-09-11 14:38:24,1089918
2025-09-11 14:38:24,1089855
2025-09-11 14:38:24,1089910
2025-09-11 14:38:24,1089869
2025-09-11 14:38:24,1089874
2025-09-11 14:38:24,1089869
2025-09-11 14:38:24,1089920
2025-09-11 14:38:24,1089942
2025-09-11 14:38:24,1089978
2025-09-11 14:38:24,1090014
2025-09-11 14:38:24,1090040
2025-09-11 14:38:24,1090032
2025-09-11 14:38:24,1090019
2025-09-11 14:38:24,1090035
2025-09-11 14:38:24,1090083
2025-09-11 14:38:24,1090150
2025-09-11 14:38:24,1090203
2025-09-11 14:38:24,1090219
2025-09-11 14:38:24,1090256
2025-09-11 14:38:24,1090351
2025-09-11 14:38:24,1090396
2025-09-11 14:38:24,1090430
2025-09-11 14:38:24,1090439
2025-09-11 14:38:24,1090563
2025-09-11 14:38:24,1090632
2025-09-11 14:38:24,1090607
2025-09-11 14:38:24,1090725
2025-09-11 14:38:24,1090825
2025-09-11 14:38:24,1090884
2025-09-11 14:38:24,1090965
2025-09-11 14:38:24,1091034
2025-09-11 14:38:24,1091195
2025-09-11 14:38:24,1091270
2025-09-11 14:38:24,1091347
2025-09-11 14:38:24,1091446
2025-09-11 14:38:24,1091548
2025-09-11 14:38:24,1091693
2025-09-11 14:38:24,1091727
2025-09-11 14:38:24,1091862
2025-09-11 14:38:24,1091907
2025-09-11 14:38:24,1092054
2025-09-11 14:38:24,1092095
2025-09-11 14:38:24,1092070
2025-09-11 14:38:24,1092045
2025-09-11 14:38:24,1091952
2025-09-11 14:38:24,1091882
2025-09-11 14:38:24,1091809
2025-09-11 14:38:24,1091768
2025-09-11 14:38:24,1091621
2025-09-11 14:38:24,1091521
2025-09-11 14:38:24,1091421
2025-09-11 14:38:24,1091324
2025-09-11 14:38:24,1091267
2025-09-11 14:38:24,1091208
2025-09-11 14:38:24,1091037
2025-09-11 14:38:24,1090978
2025-09-11 14:38:24,1090877
2025-09-11 14:38:24,1090823
2025-09-11 14:38:24,1090719
2025-09-11 14:38:25,1090674
2025-09-11 14:38:25,1090649
2025-09-11 14:38:25,1090740
2025-09-11 14:38:25,1090753
2025-09-11 14:38:25,1090814
2025-09-11 14:38:25,1090820
2025-09-11 14:38:25,1090790
2025-09-11 14:38:25,1090891
2025-09-11 14:38:25,1090846
2025-09-11 14:38:25,1090865
2025-09-11 14:38:25,1090845
2025-09-11 14:38:25,1090909
2025-09-11 14:38:25,1090873
2025-09-11 14:38:25,1090888
2025-09-11 14:38:25,1090869
2025-09-11 14:38:25,1090849
2025-09-11 14:38:25,1090778
2025-09-11 14:38:25,1090820
2025-09-11 14:38:25,1090831
2025-09-11 14:38:25,1090768
2025-09-11 14:38:25,1090778
2025-09-11 14:38:25,1090772
2025-09-11 14:38:25,1090768
2025-09-11 14:38:25,1090734
2025-09-11 14:38:25,1090714
2025-09-11 14:38:25,1090746
2025-09-11 14:38:25,1090762
2025-09-11 14:38:25,1090650
2025-09-11 14:38:25,1090619
2025-09-11 14:38:25,1090573
2025-09-11 14:38:25,1090641
2025-09-11 14:38:25,1090553
2025-09-11 14:38:25,1090581
2025-09-11 14:38:25,1090589
2025-09-11 14:38:25,1090569
2025-09-11 14:38:25,1090591
2025-09-11 14:38:25,1090631
2025-09-11 14:38:25,1090647
2025-09-11 14:38:25,1090629
2025-09-11 14:38:25,1090639
2025-09-11 14:38:25,1090637
2025-09-11 14:38:25,1090579
2025-09-11 14:38:25,1090616
2025-09-11 14:38:25,1090686
2025-09-11 14:38:25,1090665
2025-09-11 14:38:25,1090630
2025-09-11 14:38:25,1090675
2025-09-11 14:38:25,1090728
2025-09-11 14:38:25,1090746
2025-09-11 14:38:25,1090851
2025-09-11 14:38:25,1090855
2025-09-11 14:38:25,1090881
2025-09-11 14:38:25,1090894
2025-09-11 14:38:25,1090895
2025-09-11 14:38:25,1091012
2025-09-11 14:38:25,1091013
2025-09-11 14:38:25,1090978
2025-09-11 14:38:25,1091029
2025-09-11 14:38:25,1091018
2025-09-11 14:38:25,1091004
2025-09-11 14:38:25,1090960
2025-09-11 14:38:25,1090849
2025-09-11 14:38:25,1090710
2025-09-11 14:38:25,1090669
2025-09-11 14:38:25,1090506
2025-09-11 14:38:25,1090282
2025-09-11 14:38:25,1090080
2025-09-11 14:38:25,1089929
2025-09-11 14:38:25,1089651
2025-09-11 14:38:25,1089467
2025-09-11 14:38:25,1089278
2025-09-11 14:38:25,1089059
2025-09-11 14:38:25,1088925
2025-09-11 14:38:25,1088709
2025-09-11 14:38:25,1088588
2025-09-11 14:38:25,1088436
2025-09-11 14:38:25,1088317
2025-09-11 14:38:25,1088205
2025-09-11 14:38:25,1088115
2025-09-11 14:38:25,1088027
2025-09-11 14:38:25,1087972
2025-09-11 14:38:25,1087977
2025-09-11 14:38:25,1087890
2025-09-11 14:38:25,1087845
2025-09-11 14:38:25,1087811
2025-09-11 14:38:25,1087794
2025-09-11 14:38:25,1087785
2025-09-11 14:38:25,1087809
2025-09-11 14:38:25,1087733
2025-09-11 14:38:25,1087727
2025-09-11 14:38:25,1087633
2025-09-11 14:38:25,1087655
2025-09-11 14:38:25,1087560
2025-09-11 14:38:25,1087537
2025-09-11 14:38:25,1087472
2025-09-11 14:38:25,1087477
2025-09-11 14:38:25,1087496
2025-09-11 14:38:25,1087445
2025-09-11 14:38:25,1087405
2025-09-11 14:38:25,1087424
2025-09-11 14:38:26,1087448
2025-09-11 14:38:26,1087396
2025-09-11 14:38:26,1087422
2025-09-11 14:38:26,1087465
2025-09-11 14:38:26,1087338
2025-09-11 14:38:26,1087351
2025-09-11 14:38:26,1087289
2025-09-11 14:38:26,1087339
2025-09-11 14:38:26,1087360
2025-09-11 14:38:26,1087366
2025-09-11 14:38:26,1087369
2025-09-11 14:38:26,1087463
2025-09-11 14:38:26,1087477
2025-09-11 14:38:26,1087561
2025-09-11 14:38:26,1087585
2025-09-11 14:38:26,1087570
2025-09-11 14:38:26,1087585
2025-09-11 14:38:26,1087635
2025-09-11 14:38:26,1087700
2025-09-11 14:38:26,1087688
2025-09-11 14:38:26,1087674
2025-09-11 14:38:26,1087683
2025-09-11 14:38:26,1087825
2025-09-11 14:38:26,1087910
2025-09-11 14:38:26,1087973
2025-09-11 14:38:26,1088002
2025-09-11 14:38:26,1088042
2025-09-11 14:38:26,1088082
2025-09-11 14:38:26,1088187
2025-09-11 14:38:26,1088298
2025-09-11 14:38:26,1088274
2025-09-11 14:38:26,1088390
2025-09-11 14:38:26,1088405
2025-09-11 14:38:26,1088371
2025-09-11 14:38:26,1088485
2025-09-11 14:38:26,1088506
2025-09-11 14:38:26,1088480
2025-09-11 14:38:26,1088404
2025-09-11 14:38:26,1088375
2025-09-11 14:38:26,1088270
2025-09-11 14:38:26,1088192
2025-09-11 14:38:26,1088027
2025-09-11 14:38:26,1087764
2025-09-11 14:38:26,1087615
2025-09-11 14:38:26,1087371
2025-09-11 14:38:26,1087131
2025-09-11 14:38:26,1087014
2025-09-11 14:38:26,1086799
2025-09-11 14:38:26,1086664
2025-09-11 14:38:26,1086507
2025-09-11 14:38:26,1086367
2025-09-11 14:38:26,1086283
2025-09-11 14:38:26,1086161
2025-09-11 14:38:26,1086047
2025-09-11 14:38:26,1085927
2025-09-11 14:38:26,1085893
2025-09-11 14:38:26,1085895
2025-09-11 14:38:26,1085887
2025-09-11 14:38:26,1085816
2025-09-11 14:38:26,1085812
2025-09-11 14:38:26,1085741
2025-09-11 14:38:26,1085795
2025-09-11 14:38:26,1085750
2025-09-11 14:38:26,1085759
2025-09-11 14:38:26,1085737
2025-09-11 14:38:26,1085711
2025-09-11 14:38:26,1085673
2025-09-11 14:38:26,1085635
2025-09-11 14:38:26,1085645
2025-09-11 14:38:26,1085641
2025-09-11 14:38:26,1085603
2025-09-11 14:38:26,1085518
2025-09-11 14:38:26,1085638
2025-09-11 14:38:26,1085487
2025-09-11 14:38:26,1085575
2025-09-11 14:38:26,1085531
2025-09-11 14:38:26,1085553
2025-09-11 14:38:26,1085582
2025-09-11 14:38:26,1085581
2025-09-11 14:38:26,1085580
2025-09-11 14:38:26,1085561
2025-09-11 14:38:26,1085574
2025-09-11 14:38:26,1085523
2025-09-11 14:38:26,1085496
2025-09-11 14:38:26,1085484
2025-09-11 14:38:26,1085587
2025-09-11 14:38:26,1085651
2025-09-11 14:38:26,1085639
2025-09-11 14:38:26,1085716
2025-09-11 14:38:26,1085742
2025-09-11 14:38:26,1085772
2025-09-11 14:38:26,1085781
2025-09-11 14:38:26,1085766
2025-09-11 14:38:26,1085844
2025-09-11 14:38:26,1085880
2025-09-11 14:38:26,1085928
2025-09-11 14:38:26,1085957
2025-09-11 14:38:26,1085990
2025-09-11 14:38:26,1086075
2025-09-11 14:38:26,1086125
2025-09-11 14:38:27,1086245
2025-09-11 14:38:27,1086318
2025-09-11 14:38:27,1086339
2025-09-11 14:38:27,1086395
2025-09-11 14:38:27,1086436
2025-09-11 14:38:27,1086494
2025-09-11 14:38:27,1086597
2025-09-11 14:38:27,1086687
2025-09-11 14:38:27,1086689
2025-09-11 14:38:27,1086785
2025-09-11 14:38:27,1086846
2025-09-11 14:38:27,1086907
2025-09-11 14:38:27,1086991
2025-09-11 14:38:27,1087052
2025-09-11 14:38:27,1087080
2025-09-11 14:38:27,1086961
2025-09-11 14:38:27,1086915
2025-09-11 14:38:27,1086859
2025-09-11 14:38:27,1086765
2025-09-11 14:38:27,1086523
2025-09-11 14:38:27,1086386
2025-09-11 14:38:27,1086218
2025-09-11 14:38:27,1085947
2025-09-11 14:38:27,1085771
2025-09-11 14:38:27,1085575
2025-09-11 14:38:27,1085350
2025-09-11 14:38:27,1085201
2025-09-11 14:38:27,1085004
2025-09-11 14:38:27,1084924
2025-09-11 14:38:27,1084694
2025-09-11 14:38:27,1084693
2025-09-11 14:38:27,1084505
2025-09-11 14:38:27,1084477
2025-09-11 14:38:27,1084430
2025-09-11 14:38:27,1084408
2025-09-11 14:38:27,1084388
2025-09-11 14:38:27,1084367
2025-09-11 14:38:27,1084369
2025-09-11 14:38:27,1084387
2025-09-11 14:38:27,1084343
2025-09-11 14:38:27,1084294
2025-09-11 14:38:27,1084322
2025-09-11 14:38:27,1084328
2025-09-11 14:38:27,1084278
2025-09-11 14:38:27,1084255
2025-09-11 14:38:27,1084243
2025-09-11 14:38:27,1084273
2025-09-11 14:38:27,1084271
2025-09-11 14:38:27,1084208
2025-09-11 14:38:27,1084208
2025-09-11 14:38:27,1084163
2025-09-11 14:38:27,1084129
2025-09-11 14:38:27,1084154
2025-09-11 14:38:27,1084170
2025-09-11 14:38:27,1084216
2025-09-11 14:38:27,1084155
2025-09-11 14:38:27,1084202
2025-09-11 14:38:27,1084178
2025-09-11 14:38:27,1084223
2025-09-11 14:38:27,1084145
2025-09-11 14:38:27,1084188
2025-09-11 14:38:27,1084073
2025-09-11 14:38:27,1084147
2025-09-11 14:38:27,1084163
2025-09-11 14:38:27,1084211
2025-09-11 14:38:27,1084212
2025-09-11 14:38:27,1084327
2025-09-11 14:38:27,1084369
2025-09-11 14:38:27,1084423
2025-09-11 14:38:27,1084532
2025-09-11 14:38:27,1084471
2025-09-11 14:38:27,1084460
2025-09-11 14:38:27,1084614
2025-09-11 14:38:27,1084545
2025-09-11 14:38:27,1084639
2025-09-11 14:38:27,1084665
2025-09-11 14:38:27,1084718
2025-09-11 14:38:27,1084722
2025-09-11 14:38:27,1084866
2025-09-11 14:38:27,1084936
2025-09-11 14:38:27,1085078
2025-09-11 14:38:27,1085200
2025-09-11 14:38:27,1085226
2025-09-11 14:38:22,1085264
2025-09-11 14:38:27,1085379
2025-09-11 14:38:27,1085404
2025-09-11 14:38:27,1085512
2025-09-11 14:38:27,1085557
2025-09-11 14:38:27,1085567
2025-09-11 14:38:27,1085680
2025-09-11 14:38:27,1085903
2025-09-11 14:38:27,1085938
2025-09-11 14:38:27,1085975
2025-09-11 14:38:27,1085957
2025-09-11 14:38:27,1085913
2025-09-11 14:38:27,1085908
2025-09-11 14:38:27,1085712
2025-09-11 14:38:27,1085567
2025-09-11 14:38:27,1085377
2025-09-11 14:38:27,1085246
2025-09-11 14:38:28,1085057
2025-09-11 14:38:28,1084857
2025-09-11 14:38:28,1084694
2025-09-11 14:38:28,1084517
2025-09-11 14:38:28,1084390
2025-09-11 14:38:28,1084220
2025-09-11 14:38:28,1084067
2025-09-11 14:38:28,1084027
2025-09-11 14:38:28,1084021
2025-09-11 14:38:28,1083814
2025-09-11 14:38:28,1083813
2025-09-11 14:38:28,1083908
2025-09-11 14:38:28,1083853
2025-09-11 14:38:28,1083934
2025-09-11 14:38:28,1083955
2025-09-11 14:38:28,1083943
2025-09-11 14:38:28,1083988
2025-09-11 14:38:28,1084026
2025-09-11 14:38:28,1084101
2025-09-11 14:38:28,1084045
2025-09-11 14:38:28,1084038
2025-09-11 14:38:28,1084135
2025-09-11 14:38:28,1084117
2025-09-11 14:38:28,1084113
2025-09-11 14:38:28,1084160
2025-09-11 14:38:28,1084117
2025-09-11 14:38:28,1084180
2025-09-11 14:38:28,1084177
2025-09-11 14:38:28,1084183
2025-09-11 14:38:28,1084206
2025-09-11 14:38:28,1084215
2025-09-11 14:38:28,1084298
2025-09-11 14:38:28,1084323
2025-09-11 14:38:28,1084339
2025-09-11 14:38:28,1084380
2025-09-11 14:38:28,1084376
2025-09-11 14:38:28,1084355
2025-09-11 14:38:28,1084433
2025-09-11 14:38:28,1084464
2025-09-11 14:38:28,1084463
2025-09-11 14:38:28,1084533
2025-09-11 14:38:28,1084662
2025-09-11 14:38:28,1084633
2025-09-11 14:38:28,1084711
2025-09-11 14:38:28,1084849
2025-09-11 14:38:28,1084982
2025-09-11 14:38:28,1084936
2025-09-11 14:38:28,1085034
2025-09-11 14:38:28,1085136
2025-09-11 14:38:28,1085163
2025-09-11 14:38:28,1085315
2025-09-11 14:38:28,1085366
2025-09-11 14:38:28,1085450
2025-09-11 14:38:28,1085530
2025-09-11 14:38:28,1085609
2025-09-11 14:38:28,1085739
2025-09-11 14:38:28,1085870
2025-09-11 14:38:28,1085994
2025-09-11 14:38:28,1086112
2025-09-11 14:38:28,1086219
2025-09-11 14:38:28,1086289
2025-09-11 14:38:28,1086388
2025-09-11 14:38:28,1086557
2025-09-11 14:38:28,1086672
2025-09-11 14:38:28,1086810
2025-09-11 14:38:28,1087002
2025-09-11 14:38:28,1087079
2025-09-11 14:38:28,1087108
2025-09-11 14:38:28,1087045
2025-09-11 14:38:28,1087085
2025-09-11 14:38:28,1086957
2025-09-11 14:38:28,1086845
2025-09-11 14:38:28,1086794
2025-09-11 14:38:28,1086596
2025-09-11 14:38:28,1086482
2025-09-11 14:38:28,1086281
2025-09-11 14:38:28,1086083
2025-09-11 14:38:28,1086023
2025-09-11 14:38:28,1085876
2025-09-11 14:38:28,1085757
2025-09-11 14:38:28,1085669
2025-09-11 14:38:28,1085551
2025-09-11 14:38:28,1085455
2025-09-11 14:38:28,1085388
2025-09-11 14:38:28,1085445
2025-09-11 14:38:28,1085476
2025-09-11 14:38:28,1085488
2025-09-11 14:38:28,1085608
2025-09-11 14:38:28,1085648
2025-09-11 14:38:28,1085728
2025-09-11 14:38:28,1085774
2025-09-11 14:38:28,1085866
2025-09-11 14:38:28,1085929
2025-09-11 14:38:28,1086012
2025-09-11 14:38:28,1085996
2025-09-11 14:38:28,1086042
2025-09-11 14:38:28,1086074
2025-09-11 14:38:28,1086162
2025-09-11 14:38:28,1086313
2025-09-11 14:38:28,1086267
2025-09-11 14:38:29,1086320
2025-09-11 14:38:29,1086346
2025-09-11 14:38:29,1086320
2025-09-11 14:38:29,1086448
2025-09-11 14:38:29,1086381
2025-09-11 14:38:29,1086459
2025-09-11 14:38:29,1086485
2025-09-11 14:38:29,1086582
2025-09-11 14:38:29,1086561
2025-09-11 14:38:29,1086599
2025-09-11 14:38:29,1086542
2025-09-11 14:38:29,1086553
2025-09-11 14:38:29,1086617
2025-09-11 14:38:29,1086622
2025-09-11 14:38:29,1086674
2025-09-11 14:38:29,1086723
2025-09-11 14:38:29,1086758
2025-09-11 14:38:29,1086741
2025-09-11 14:38:29,1086864
2025-09-11 14:38:29,1086908
2025-09-11 14:38:29,1086947
2025-09-11 14:38:29,1086950
2025-09-11 14:38:29,1086967
2025-09-11 14:38:29,1086920
2025-09-11 14:38:29,1086921
2025-09-11 14:38:29,1086923
2025-09-11 14:38:29,1086996
2025-09-11 14:38:29,1087107
2025-09-11 14:38:29,1087115
2025-09-11 14:38:29,1087193
2025-09-11 14:38:29,1087258
2025-09-11 14:38:29,1087254
2025-09-11 14:38:29,1087337
2025-09-11 14:38:29,1087416
2025-09-11 14:38:29,1087413
2025-09-11 14:38:29,1087467
2025-09-11 14:38:29,1087480
2025-09-11 14:38:29,1087491
2025-09-11 14:38:29,1087626
2025-09-11 14:38:29,1087625
2025-09-11 14:38:29,1087625
2025-09-11 14:38:29,1087593
2025-09-11 14:38:29,1087540
2025-09-11 14:38:29,1087413
2025-09-11 14:38:29,1087336
2025-09-11 14:38:29,1087065
2025-09-11 14:38:29,1086967
2025-09-11 14:38:29,1086659
2025-09-11 14:38:29,1086371
2025-09-11 14:38:29,1086097
2025-09-11 14:38:29,1085842
2025-09-11 14:38:29,1085514
2025-09-11 14:38:29,1085337
2025-09-11 14:38:29,1085040
2025-09-11 14:38:29,1084861
2025-09-11 14:38:29,1084696
2025-09-11 14:38:29,1084507
2025-09-11 14:38:29,1084369
2025-09-11 14:38:29,1084210
2025-09-11 14:38:29,1084167
2025-09-11 14:38:29,1084020
2025-09-11 14:38:29,1084067
2025-09-11 14:38:29,1083962
2025-09-11 14:38:29,1083887
2025-09-11 14:38:29,1083862
2025-09-11 14:38:29,1083847
2025-09-11 14:38:29,1083856
2025-09-11 14:38:29,1083787
2025-09-11 14:38:29,1083811
2025-09-11 14:38:29,1083681
2025-09-11 14:38:29,1083773
2025-09-11 14:38:29,1083719
2025-09-11 14:38:29,1083700
2025-09-11 14:38:29,1083707
2025-09-11 14:38:29,1083702
2025-09-11 14:38:29,1083526
2025-09-11 14:38:29,1083534
2025-09-11 14:38:29,1083481
2025-09-11 14:38:29,1083456
2025-09-11 14:38:29,1083473
2025-09-11 14:38:29,1083514
2025-09-11 14:38:29,1083454
2025-09-11 14:38:29,1083454
2025-09-11 14:38:29,1083471
2025-09-11 14:38:29,1083452
2025-09-11 14:38:29,1083410
2025-09-11 14:38:29,1083426
2025-09-11 14:38:29,1083460
2025-09-11 14:38:29,1083393
2025-09-11 14:38:29,1083453
2025-09-11 14:38:29,1083465
2025-09-11 14:38:29,1083464
2025-09-11 14:38:29,1083552
2025-09-11 14:38:29,1083646
2025-09-11 14:38:29,1083609
2025-09-11 14:38:29,1083655
2025-09-11 14:38:29,1083655
2025-09-11 14:38:29,1083699
2025-09-11 14:38:29,1083743
2025-09-11 14:38:29,1083792
2025-09-11 14:38:30,1083831
2025-09-11 14:38:30,1083829
2025-09-11 14:38:30,1083936
2025-09-11 14:38:30,1084000
2025-09-11 14:38:30,1084131
2025-09-11 14:38:30,1084218
2025-09-11 14:38:30,1084255
2025-09-11 14:38:30,1084285
2025-09-11 14:38:30,1084339
2025-09-11 14:38:30,1084443
2025-09-11 14:38:30,1084521
2025-09-11 14:38:30,1084554
2025-09-11 14:38:30,1084662
2025-09-11 14:38:30,1084673
2025-09-11 14:38:30,1084798
2025-09-11 14:38:30,1084777
2025-09-11 14:38:30,1084918
2025-09-11 14:38:30,1084901
2025-09-11 14:38:30,1084903
2025-09-11 14:38:30,1084896
2025-09-11 14:38:30,1084781
2025-09-11 14:38:30,1084679
2025-09-11 14:38:30,1084452
2025-09-11 14:38:30,1084271
2025-09-11 14:38:30,1083989
2025-09-11 14:38:30,1083725
2025-09-11 14:38:30,1083320
2025-09-11 14:38:30,1083168
2025-09-11 14:38:30,1082905
2025-09-11 14:38:30,1082630
2025-09-11 14:38:30,1082484
2025-09-11 14:38:30,1082369
2025-09-11 14:38:30,1082154
2025-09-11 14:38:30,1082113
2025-09-11 14:38:30,1081904
2025-09-11 14:38:30,1081908
2025-09-11 14:38:30,1081804
2025-09-11 14:38:30,1081848
2025-09-11 14:38:30,1081871
2025-09-11 14:38:30,1081792
2025-09-11 14:38:30,1081766
2025-09-11 14:38:30,1081780
2025-09-11 14:38:30,1081754
2025-09-11 14:38:30,1081769
2025-09-11 14:38:30,1081809
2025-09-11 14:38:30,1081786
2025-09-11 14:38:30,1081727
2025-09-11 14:38:30,1081736
2025-09-11 14:38:30,1081675
2025-09-11 14:38:30,1081746
2025-09-11 14:38:30,1081774
2025-09-11 14:38:30,1081689
2025-09-11 14:38:30,1081714
2025-09-11 14:38:30,1081605
2025-09-11 14:38:30,1081695
2025-09-11 14:38:30,1081611
2025-09-11 14:38:30,1081604
2025-09-11 14:38:30,1081633
2025-09-11 14:38:30,1081625
2025-09-11 14:38:30,1081650
2025-09-11 14:38:30,1081661
2025-09-11 14:38:30,1081656
2025-09-11 14:38:30,1081704
2025-09-11 14:38:30,1081645
2025-09-11 14:38:30,1081631
2025-09-11 14:38:30,1081692
2025-09-11 14:38:30,1081704
2025-09-11 14:38:30,1081769
2025-09-11 14:38:30,1081776
2025-09-11 14:38:30,1081910
2025-09-11 14:38:30,1081944
2025-09-11 14:38:30,1082018
2025-09-11 14:38:30,1082111
2025-09-11 14:38:30,1082187
2025-09-11 14:38:30,1082126
2025-09-11 14:38:30,1082268
2025-09-11 14:38:30,1082310
2025-09-11 14:38:30,1082367
2025-09-11 14:38:30,1082368
2025-09-11 14:38:30,1082502
2025-09-11 14:38:30,1082551
2025-09-11 14:38:30,1082626
2025-09-11 14:38:30,1082765
2025-09-11 14:38:30,1082906
2025-09-11 14:38:30,1082992
2025-09-11 14:38:30,1083091
2025-09-11 14:38:30,1083160
2025-09-11 14:38:30,1083304
2025-09-11 14:38:30,1083363
2025-09-11 14:38:30,1083451
2025-09-11 14:38:30,1083585
2025-09-11 14:38:30,1083693
2025-09-11 14:38:30,1083771
2025-09-11 14:38:30,1083825
2025-09-11 14:38:30,1083992
2025-09-11 14:38:30,1084106
2025-09-11 14:38:30,1084228
2025-09-11 14:38:30,1084266
2025-09-11 14:38:30,1084176
2025-09-11 14:38:30,1084151
2025-09-11 14:38:31,1083960
2025-09-11 14:38:31,1083839
2025-09-11 14:38:31,1083564
2025-09-11 14:38:31,1083410
2025-09-11 14:38:31,1083115
2025-09-11 14:38:31,1082873
2025-09-11 14:38:31,1082768
2025-09-11 14:38:31,1082463
2025-09-11 14:38:31,1082405
2025-09-11 14:38:31,1082271
2025-09-11 14:38:31,1082236
2025-09-11 14:38:31,1082120
2025-09-11 14:38:31,1082029
2025-09-11 14:38:31,1082015
2025-09-11 14:38:31,1081938
2025-09-11 14:38:31,1082050
2025-09-11 14:38:31,1082073
2025-09-11 14:38:31,1082122
2025-09-11 14:38:31,1082204
2025-09-11 14:38:31,1082179
2025-09-11 14:38:31,1082299
2025-09-11 14:38:31,1082323
2025-09-11 14:38:31,1082401
2025-09-11 14:38:31,1082454
2025-09-11 14:38:31,1082505
2025-09-11 14:38:31,1082590
2025-09-11 14:38:31,1082598
2025-09-11 14:38:31,1082631
2025-09-11 14:38:31,1082636
2025-09-11 14:38:31,1082658
2025-09-11 14:38:31,1082699
2025-09-11 14:38:31,1082768
2025-09-11 14:38:31,1082758
2025-09-11 14:38:31,1082818
2025-09-11 14:38:31,1082910
2025-09-11 14:38:31,1082905
2025-09-11 14:38:31,1082982
2025-09-11 14:38:31,1082963
2025-09-11 14:38:31,1083080
2025-09-11 14:38:31,1083031
2025-09-11 14:38:31,1083121
2025-09-11 14:38:31,1083109
2025-09-11 14:38:31,1083234
2025-09-11 14:38:31,1083313
2025-09-11 14:38:31,1083370
2025-09-11 14:38:31,1083416
2025-09-11 14:38:31,1083625
2025-09-11 14:38:31,1083588
2025-09-11 14:38:31,1083716
2025-09-11 14:38:31,1083873
2025-09-11 14:38:31,1083902
2025-09-11 14:38:31,1084027
2025-09-11 14:38:31,1084122
2025-09-11 14:38:31,1084190
2025-09-11 14:38:31,1084259
2025-09-11 14:38:31,1084387
2025-09-11 14:38:31,1084455
2025-09-11 14:38:31,1084556
2025-09-11 14:38:31,1084699
2025-09-11 14:38:31,1084746
2025-09-11 14:38:31,1084920
2025-09-11 14:38:31,1085018
2025-09-11 14:38:31,1085094
2025-09-11 14:38:31,1085292
2025-09-11 14:38:31,1085313
2025-09-11 14:38:31,1085442
2025-09-11 14:38:31,1085539
2025-09-11 14:38:31,1085687
2025-09-11 14:38:31,1085780
2025-09-11 14:38:31,1085998
2025-09-11 14:38:31,1086103
2025-09-11 14:38:31,1086161
2025-09-11 14:38:31,1086188
2025-09-11 14:38:31,1086106
2025-09-11 14:38:31,1086050
2025-09-11 14:38:31,1085902
2025-09-11 14:38:31,1085806
2025-09-11 14:38:31,1085593
2025-09-11 14:38:31,1085373
2025-09-11 14:38:31,1085127
2025-09-11 14:38:31,1084837
2025-09-11 14:38:31,1084620
2025-09-11 14:38:31,1084319
2025-09-11 14:38:31,1084104
2025-09-11 14:38:31,1083925
2025-09-11 14:38:31,1083698
2025-09-11 14:38:31,1083553
2025-09-11 14:38:31,1083405
2025-09-11 14:38:31,1083325
2025-09-11 14:38:31,1083249
2025-09-11 14:38:31,1083182
2025-09-11 14:38:31,1083135
2025-09-11 14:38:31,1083139
2025-09-11 14:38:31,1083188
2025-09-11 14:38:31,1083144
2025-09-11 14:38:31,1083079
2025-09-11 14:38:31,1083079
2025-09-11 14:38:31,1083076
2025-09-11 14:38:31,1082983
2025-09-11 14:38:32,1082956
2025-09-11 14:38:32,1082943
2025-09-11 14:38:32,1082903
2025-09-11 14:38:32,1082927
2025-09-11 14:38:32,1082811
2025-09-11 14:38:32,1082843
2025-09-11 14:38:32,1082793
2025-09-11 14:38:32,1082713
2025-09-11 14:38:32,1082710
2025-09-11 14:38:32,1082664
2025-09-11 14:38:32,1082654
2025-09-11 14:38:32,1082628
2025-09-11 14:38:32,1082591
2025-09-11 14:38:32,1082560
2025-09-11 14:38:32,1082540
2025-09-11 14:38:32,1082506
2025-09-11 14:38:32,1082387
2025-09-11 14:38:32,1082429
2025-09-11 14:38:32,1082369
2025-09-11 14:38:32,1082332
2025-09-11 14:38:32,1082365
2025-09-11 14:38:32,1082396
2025-09-11 14:38:32,1082307
2025-09-11 14:38:32,1082438
2025-09-11 14:38:32,1082480
2025-09-11 14:38:32,1082558
2025-09-11 14:38:32,1082548
2025-09-11 14:38:32,1082548
2025-09-11 14:38:32,1082598
2025-09-11 14:38:32,1082641
2025-09-11 14:38:32,1082626
2025-09-11 14:38:32,1082692
2025-09-11 14:38:32,1082657
2025-09-11 14:38:32,1082752
2025-09-11 14:38:32,1082816
2025-09-11 14:38:32,1082856
2025-09-11 14:38:32,1083033
2025-09-11 14:38:32,1083020
2025-09-11 14:38:32,1083115
2025-09-11 14:38:32,1083223
2025-09-11 14:38:32,1083228
2025-09-11 14:38:32,1083290
2025-09-11 14:38:32,1083378
2025-09-11 14:38:32,1083408
2025-09-11 14:38:32,1083452
2025-09-11 14:38:32,1083507
2025-09-11 14:38:32,1083635
2025-09-11 14:38:32,1083709
2025-09-11 14:38:32,1083827
2025-09-11 14:38:32,1083855
2025-09-11 14:38:32,1083983
2025-09-11 14:38:32,1083924
2025-09-11 14:38:32,1083837
2025-09-11 14:38:32,1083715
2025-09-11 14:38:32,1083622
2025-09-11 14:38:32,1083409
2025-09-11 14:38:32,1083144
2025-09-11 14:38:32,1082840
2025-09-11 14:38:32,1082583
2025-09-11 14:38:32,1082264
2025-09-11 14:38:32,1081899
2025-09-11 14:38:32,1081626
2025-09-11 14:38:32,1081343
2025-09-11 14:38:32,1081180
2025-09-11 14:38:32,1080947
2025-09-11 14:38:32,1080767
2025-09-11 14:38:32,1080709
2025-09-11 14:38:32,1080631
2025-09-11 14:38:32,1080439
2025-09-11 14:38:32,1080446
2025-09-11 14:38:32,1080382
2025-09-11 14:38:32,1080433
2025-09-11 14:38:32,1080388
2025-09-11 14:38:32,1080382
2025-09-11 14:38:32,1080366
2025-09-11 14:38:32,1080317
2025-09-11 14:38:32,1080323
2025-09-11 14:38:32,1080287
2025-09-11 14:38:32,1080272
2025-09-11 14:38:32,1080292
2025-09-11 14:38:32,1080256
2025-09-11 14:38:32,1080265
2025-09-11 14:38:32,1080326
2025-09-11 14:38:32,1080208
2025-09-11 14:38:32,1080321
2025-09-11 14:38:32,1080275
2025-09-11 14:38:32,1080264
2025-09-11 14:38:32,1080246
2025-09-11 14:38:32,1080217
2025-09-11 14:38:32,1080232
2025-09-11 14:38:32,1080191
2025-09-11 14:38:32,1080229
2025-09-11 14:38:32,1080172
2025-09-11 14:38:32,1080177
2025-09-11 14:38:32,1080186
2025-09-11 14:38:32,1080163
2025-09-11 14:38:32,1080150
2025-09-11 14:38:32,1080185
2025-09-11 14:38:32,1080206
2025-09-11 14:38:32,1080224
2025-09-11 14:38:33,1080256
2025-09-11 14:38:33,1080288
2025-09-11 14:38:33,1080345
2025-09-11 14:38:33,1080445
2025-09-11 14:38:33,1080493
2025-09-11 14:38:33,1080574
2025-09-11 14:38:33,1080581
2025-09-11 14:38:33,1080665
2025-09-11 14:38:33,1080714
2025-09-11 14:38:33,1080745
2025-09-11 14:38:33,1080776
2025-09-11 14:38:33,1080869
2025-09-11 14:38:33,1080972
2025-09-11 14:38:33,1081021
2025-09-11 14:38:33,1081052
2025-09-11 14:38:33,1081232
2025-09-11 14:38:33,1081270
2025-09-11 14:38:33,1081334
2025-09-11 14:38:33,1081461
2025-09-11 14:38:33,1081534
2025-09-11 14:38:33,1081606
2025-09-11 14:38:33,1081697
2025-09-11 14:38:33,1081719
2025-09-11 14:38:33,1081900
2025-09-11 14:38:33,1081919
2025-09-11 14:38:33,1081945
2025-09-11 14:38:33,1082090
2025-09-11 14:38:33,1082117
2025-09-11 14:38:33,1082106
2025-09-11 14:38:33,1082136
2025-09-11 14:38:33,1082072
2025-09-11 14:38:33,1081863
2025-09-11 14:38:33,1081789
2025-09-11 14:38:33,1081556
2025-09-11 14:38:33,1081287
2025-09-11 14:38:33,1080970
2025-09-11 14:38:33,1080690
2025-09-11 14:38:33,1080339
2025-09-11 14:38:33,1080055
2025-09-11 14:38:33,1079863
2025-09-11 14:38:33,1079651
2025-09-11 14:38:33,1079487
2025-09-11 14:38:33,1079333
2025-09-11 14:38:33,1079178
2025-09-11 14:38:33,1079215
2025-09-11 14:38:33,1079083
2025-09-11 14:38:33,1079002
2025-09-11 14:38:33,1079019
2025-09-11 14:38:33,1079048
2025-09-11 14:38:33,1079097
2025-09-11 14:38:33,1079100
2025-09-11 14:38:33,1079095
2025-09-11 14:38:33,1079167
2025-09-11 14:38:33,1079112
2025-09-11 14:38:33,1079129
2025-09-11 14:38:33,1079129
2025-09-11 14:38:33,1079108
2025-09-11 14:38:33,1079083
2025-09-11 14:38:33,1079115
2025-09-11 14:38:33,1079155
2025-09-11 14:38:33,1079225
2025-09-11 14:38:33,1079198
2025-09-11 14:38:33,1079236
2025-09-11 14:38:33,1079212
2025-09-11 14:38:33,1079191
2025-09-11 14:38:33,1079203
2025-09-11 14:38:33,1079220
2025-09-11 14:38:33,1079348
2025-09-11 14:38:33,1079350
2025-09-11 14:38:33,1079296
2025-09-11 14:38:33,1079304
2025-09-11 14:38:33,1079310
2025-09-11 14:38:33,1079348
2025-09-11 14:38:33,1079338
2025-09-11 14:38:33,1079397
2025-09-11 14:38:33,1079453
2025-09-11 14:38:33,1079498
2025-09-11 14:38:33,1079562
2025-09-11 14:38:33,1079687
2025-09-11 14:38:33,1079706
2025-09-11 14:38:33,1079808
2025-09-11 14:38:33,1079846
2025-09-11 14:38:33,1079984
2025-09-11 14:38:33,1080139
2025-09-11 14:38:33,1080227
2025-09-11 14:38:33,1080172
2025-09-11 14:38:33,1080228
2025-09-11 14:38:33,1080365
2025-09-11 14:38:33,1080444
2025-09-11 14:38:33,1080572
2025-09-11 14:38:33,1080680
2025-09-11 14:38:33,1080799
2025-09-11 14:38:33,1080963
2025-09-11 14:38:33,1081020
2025-09-11 14:38:33,1081175
2025-09-11 14:38:33,1081272
2025-09-11 14:38:33,1081446
2025-09-11 14:38:33,1081603
2025-09-11 14:38:33,1081683
2025-09-11 14:38:33,1081805
2025-09-11 14:38:33,1081962
2025-09-11 14:38:34,1082112
2025-09-11 14:38:34,1082297
2025-09-11 14:38:34,1082291
2025-09-11 14:38:34,1082301
2025-09-11 14:38:34,1082260
2025-09-11 14:38:34,1082219
2025-09-11 14:38:34,1082112
2025-09-11 14:38:34,1081957
2025-09-11 14:38:34,1081704
2025-09-11 14:38:34,1081400
2025-09-11 14:38:34,1081183
2025-09-11 14:38:34,1080964
2025-09-11 14:38:34,1080799
2025-09-11 14:38:34,1080565
2025-09-11 14:38:34,1080414
2025-09-11 14:38:34,1080279
2025-09-11 14:38:34,1080233
2025-09-11 14:38:34,1080119
2025-09-11 14:38:34,1080160
2025-09-11 14:38:34,1080125
2025-09-11 14:38:34,1080221
2025-09-11 14:38:34,1080339
2025-09-11 14:38:34,1080383
2025-09-11 14:38:34,1080520
2025-09-11 14:38:34,1080579
2025-09-11 14:38:34,1080655
2025-09-11 14:38:34,1080747
2025-09-11 14:38:34,1080870
2025-09-11 14:38:34,1080929
2025-09-11 14:38:34,1080948
2025-09-11 14:38:34,1081079
2025-09-11 14:38:34,1081131
2025-09-11 14:38:34,1081105
2025-09-11 14:38:34,1081245
2025-09-11 14:38:34,1081277
2025-09-11 14:38:34,1081431
2025-09-11 14:38:34,1081411
2025-09-11 14:38:34,1081468
2025-09-11 14:38:34,1081506
2025-09-11 14:38:34,1081534
2025-09-11 14:38:34,1081651
2025-09-11 14:38:34,1081684
2025-09-11 14:38:34,1081734
2025-09-11 14:38:34,1081830
2025-09-11 14:38:34,1081838
2025-09-11 14:38:34,1081928
2025-09-11 14:38:34,1081952
2025-09-11 14:38:34,1081950
2025-09-11 14:38:34,1082016
2025-09-11 14:38:34,1082149
2025-09-11 14:38:34,1082234
2025-09-11 14:38:34,1082281
2025-09-11 14:38:34,1082388
2025-09-11 14:38:34,1082525
2025-09-11 14:38:34,1082573
2025-09-11 14:38:34,1082603
2025-09-11 14:38:34,1082705
2025-09-11 14:38:34,1082714
2025-09-11 14:38:34,1082748
2025-09-11 14:38:34,1082869
2025-09-11 14:38:34,1082978
2025-09-11 14:38:34,1082987
2025-09-11 14:38:34,1083009
2025-09-11 14:38:34,1083127
2025-09-11 14:38:34,1083245
2025-09-11 14:38:34,1083308
2025-09-11 14:38:34,1083426
2025-09-11 14:38:34,1083467
2025-09-11 14:38:34,1083572
2025-09-11 14:38:34,1083631
2025-09-11 14:38:34,1083698
2025-09-11 14:38:34,1083795
2025-09-11 14:38:34,1083864
2025-09-11 14:38:34,1083952
2025-09-11 14:38:34,1083977
2025-09-11 14:38:34,1084009
2025-09-11 14:38:34,1083938
2025-09-11 14:38:34,1083777
2025-09-11 14:38:34,1083773
2025-09-11 14:38:34,1083565
2025-09-11 14:38:34,1083359
2025-09-11 14:38:34,1083028
2025-09-11 14:38:34,1082670
2025-09-11 14:38:34,1082253
2025-09-11 14:38:34,1081940
2025-09-11 14:38:34,1081638
2025-09-11 14:38:34,1081388
2025-09-11 14:38:34,1081038
2025-09-11 14:38:34,1080846
2025-09-11 14:38:34,1080651
2025-09-11 14:38:34,1080482
2025-09-11 14:38:34,1080377
2025-09-11 14:38:34,1080244
2025-09-11 14:38:34,1080162
2025-09-11 14:38:34,1080099
2025-09-11 14:38:34,1080107
2025-09-11 14:38:34,1080093
2025-09-11 14:38:34,1080027
2025-09-11 14:38:34,1080002
2025-09-11 14:38:34,1079982
2025-09-11 14:38:35,1079903
2025-09-11 14:38:35,1079878
2025-09-11 14:38:35,1079834
2025-09-11 14:38:35,1079811
2025-09-11 14:38:35,1079799
2025-09-11 14:38:35,1079778
2025-09-11 14:38:35,1079820
2025-09-11 14:38:35,1079742
2025-09-11 14:38:35,1079732
2025-09-11 14:38:35,1079720
2025-09-11 14:38:35,1079661
2025-09-11 14:38:35,1079696
2025-09-11 14:38:35,1079574
2025-09-11 14:38:35,1079564
2025-09-11 14:38:35,1079521
2025-09-11 14:38:35,1079582
2025-09-11 14:38:35,1079477
2025-09-11 14:38:35,1079547
2025-09-11 14:38:35,1079509
2025-09-11 14:38:35,1079473
2025-09-11 14:38:35,1079462
2025-09-11 14:38:35,1079500
2025-09-11 14:38:35,1079429
2025-09-11 14:38:35,1079382
2025-09-11 14:38:35,1079499
2025-09-11 14:38:35,1079554
2025-09-11 14:38:35,1079626
2025-09-11 14:38:35,1079665
2025-09-11 14:38:35,1079678
2025-09-11 14:38:35,1079759
2025-09-11 14:38:35,1079854
2025-09-11 14:38:35,1079828
2025-09-11 14:38:35,1079885
2025-09-11 14:38:35,1079913
2025-09-11 14:38:35,1080015
2025-09-11 14:38:35,1080063
2025-09-11 14:38:35,1080129
2025-09-11 14:38:35,1080150
2025-09-11 14:38:35,1080286
2025-09-11 14:38:35,1080295
2025-09-11 14:38:35,1080495
2025-09-11 14:38:35,1080572
2025-09-11 14:38:35,1080644
2025-09-11 14:38:35,1080657
2025-09-11 14:38:35,1080730
2025-09-11 14:38:35,1080822
2025-09-11 14:38:35,1080941
2025-09-11 14:38:35,1081063
2025-09-11 14:38:35,1080985
2025-09-11 14:38:35,1081000
2025-09-11 14:38:35,1080908
2025-09-11 14:38:35,1080827
2025-09-11 14:38:35,1080692
2025-09-11 14:38:35,1080503
2025-09-11 14:38:35,1080177
2025-09-11 14:38:35,1079925
2025-09-11 14:38:35,1079541
2025-09-11 14:38:35,1079232
2025-09-11 14:38:35,1078883
2025-09-11 14:38:35,1078623
2025-09-11 14:38:35,1078328
2025-09-11 14:38:35,1078129
2025-09-11 14:38:35,1077919
2025-09-11 14:38:35,1077753
2025-09-11 14:38:35,1077683
2025-09-11 14:38:35,1077582
2025-09-11 14:38:35,1077452
2025-09-11 14:38:35,1077483
2025-09-11 14:38:35,1077413
2025-09-11 14:38:35,1077382
2025-09-11 14:38:35,1077389
2025-09-11 14:38:35,1077440
2025-09-11 14:38:35,1077426
2025-09-11 14:38:35,1077425
2025-09-11 14:38:35,1077429
2025-09-11 14:38:35,1077370
2025-09-11 14:38:35,1077305
2025-09-11 14:38:35,1077354
2025-09-11 14:38:35,1077379
2025-09-11 14:38:35,1077388
2025-09-11 14:38:35,1077394
2025-09-11 14:38:35,1077392
2025-09-11 14:38:35,1077370
2025-09-11 14:38:35,1077411
2025-09-11 14:38:35,1077363
2025-09-11 14:38:35,1077448
2025-09-11 14:38:35,1077296
2025-09-11 14:38:35,1077404
2025-09-11 14:38:35,1077299
2025-09-11 14:38:35,1077383
2025-09-11 14:38:35,1077380
2025-09-11 14:38:35,1077384
2025-09-11 14:38:35,1077368
2025-09-11 14:38:35,1077430
2025-09-11 14:38:35,1077425
2025-09-11 14:38:35,1077469
2025-09-11 14:38:35,1077401
2025-09-11 14:38:35,1077425
2025-09-11 14:38:35,1077517
2025-09-11 14:38:36,1077578
2025-09-11 14:38:36,1077653
2025-09-11 14:38:36,1077694
2025-09-11 14:38:36,1077825
2025-09-11 14:38:36,1077903
2025-09-11 14:38:36,1077873
2025-09-11 14:38:36,1077911
2025-09-11 14:38:36,1077985
2025-09-11 14:38:36,1078030
2025-09-11 14:38:36,1078014
2025-09-11 14:38:36,1078181
2025-09-11 14:38:36,1078213
2025-09-11 14:38:36,1078314
2025-09-11 14:38:36,1078449
2025-09-11 14:38:36,1078520
2025-09-11 14:38:36,1078618
2025-09-11 14:38:36,1078711
2025-09-11 14:38:36,1078811
2025-09-11 14:38:36,1078862
2025-09-11 14:38:36,1078918
2025-09-11 14:38:36,1079015
2025-09-11 14:38:36,1079141
2025-09-11 14:38:36,1079153
2025-09-11 14:38:36,1079159
2025-09-11 14:38:36,1079145
2025-09-11 14:38:36,1078988
2025-09-11 14:38:36,1078876
2025-09-11 14:38:36,1078693
2025-09-11 14:38:36,1078470
2025-09-11 14:38:36,1078137
2025-09-11 14:38:36,1077798
2025-09-11 14:38:36,1077392
2025-09-11 14:38:36,1077097
2025-09-11 14:38:36,1076824
2025-09-11 14:38:36,1076548
2025-09-11 14:38:36,1076347
2025-09-11 14:38:36,1076182
2025-09-11 14:38:36,1076045
2025-09-11 14:38:36,1075964
2025-09-11 14:38:36,1075942
2025-09-11 14:38:36,1075943
2025-09-11 14:38:36,1075804
2025-09-11 14:38:36,1075816
2025-09-11 14:38:36,1075877
2025-09-11 14:38:36,1075881
2025-09-11 14:38:36,1075908
2025-09-11 14:38:36,1075902
2025-09-11 14:38:36,1075895
2025-09-11 14:38:36,1075920
2025-09-11 14:38:36,1075893
2025-09-11 14:38:36,1075898
2025-09-11 14:38:36,1075921
2025-09-11 14:38:36,1075973
2025-09-11 14:38:36,1075946
2025-09-11 14:38:36,1076074
2025-09-11 14:38:36,1076039
2025-09-11 14:38:36,1076059
2025-09-11 14:38:36,1076033
2025-09-11 14:38:36,1075978
2025-09-11 14:38:36,1075988
2025-09-11 14:38:36,1075974
2025-09-11 14:38:36,1076065
2025-09-11 14:38:36,1076056
2025-09-11 14:38:36,1076075
2025-09-11 14:38:36,1076073
2025-09-11 14:38:36,1076077
2025-09-11 14:38:36,1076119
2025-09-11 14:38:36,1076098
2025-09-11 14:38:36,1076199
2025-09-11 14:38:36,1076215
2025-09-11 14:38:36,1076218
2025-09-11 14:38:36,1076266
2025-09-11 14:38:36,1076360
2025-09-11 14:38:36,1076418
2025-09-11 14:38:36,1076490
2025-09-11 14:38:36,1076564
2025-09-11 14:38:36,1076665
2025-09-11 14:38:36,1076712
2025-09-11 14:38:36,1076800
2025-09-11 14:38:36,1076836
2025-09-11 14:38:36,1076917
2025-09-11 14:38:36,1076993
2025-09-11 14:38:36,1077053
2025-09-11 14:38:36,1077178
2025-09-11 14:38:36,1077293
2025-09-11 14:38:36,1077389
2025-09-11 14:38:36,1077497
2025-09-11 14:38:36,1077685
2025-09-11 14:38:36,1077712
2025-09-11 14:38:36,1077945
2025-09-11 14:38:36,1077976
2025-09-11 14:38:36,1078105
2025-09-11 14:38:36,1078306
2025-09-11 14:38:36,1078367
2025-09-11 14:38:36,1078546
2025-09-11 14:38:36,1078521
2025-09-11 14:38:36,1078555
2025-09-11 14:38:36,1078548
2025-09-11 14:38:36,1078430
2025-09-11 14:38:36,1078352
2025-09-11 14:38:36,1078114
2025-09-11 14:38:37,1077908
2025-09-11 14:38:37,1077648
2025-09-11 14:38:37,1077393
2025-09-11 14:38:37,1077074
2025-09-11 14:38:37,1076835
2025-09-11 14:38:37,1076623
2025-09-11 14:38:37,1076482
2025-09-11 14:38:37,1076223
2025-09-11 14:38:37,1076181
2025-09-11 14:38:37,1076203
2025-09-11 14:38:37,1076245
2025-09-11 14:38:37,1076204
2025-09-11 14:38:37,1076287
2025-09-11 14:38:37,1076414
2025-09-11 14:38:37,1076471
2025-09-11 14:38:37,1076640
2025-09-11 14:38:37,1076654
2025-09-11 14:38:37,1076680
2025-09-11 14:38:37,1076793
2025-09-11 14:38:37,1076826
2025-09-11 14:38:37,1076951
2025-09-11 14:38:37,1076984
2025-09-11 14:38:37,1077083
2025-09-11 14:38:37,1077165
2025-09-11 14:38:37,1077137
2025-09-11 14:38:37,1077236
2025-09-11 14:38:37,1077261
2025-09-11 14:38:37,1077330
2025-09-11 14:38:37,1077391
2025-09-11 14:38:37,1077413
2025-09-11 14:38:37,1077448
2025-09-11 14:38:37,1077483
2025-09-11 14:38:37,1077581
2025-09-11 14:38:37,1077623
2025-09-11 14:38:37,1077641
2025-09-11 14:38:37,1077753
2025-09-11 14:38:37,1077859
2025-09-11 14:38:37,1077846
2025-09-11 14:38:37,1077953
2025-09-11 14:38:37,1078056
2025-09-11 14:38:37,1078090
2025-09-11 14:38:37,1078216
2025-09-11 14:38:37,1078308
2025-09-11 14:38:37,1078468
2025-09-11 14:38:37,1078543
2025-09-11 14:38:37,1078592
2025-09-11 14:38:37,1078803
2025-09-11 14:38:37,1078927
2025-09-11 14:38:37,1079003
2025-09-11 14:38:37,1079053
2025-09-11 14:38:37,1079188
2025-09-11 14:38:37,1079305
2025-09-11 14:38:37,1079369
2025-09-11 14:38:37,1079530
2025-09-11 14:38:37,1079724
2025-09-11 14:38:37,1079803
2025-09-11 14:38:37,1079856
2025-09-11 14:38:37,1080124
2025-09-11 14:38:37,1080330
2025-09-11 14:38:37,1080458
2025-09-11 14:38:37,1080517
2025-09-11 14:38:37,1080584
2025-09-11 14:38:37,1080501
2025-09-11 14:38:37,1080513
2025-09-11 14:38:37,1080449
2025-09-11 14:38:37,1080267
2025-09-11 14:38:37,1080176
2025-09-11 14:38:37,1079933
2025-09-11 14:38:37,1079633
2025-09-11 14:38:37,1079324
2025-09-11 14:38:37,1079016
2025-09-11 14:38:37,1078724
2025-09-11 14:38:37,1078517
2025-09-11 14:38:37,1078265
2025-09-11 14:38:37,1078036
2025-09-11 14:38:37,1077887
2025-09-11 14:38:37,1077758
2025-09-11 14:38:37,1077678
2025-09-11 14:38:37,1077613
2025-09-11 14:38:37,1077662
2025-09-11 14:38:37,1077631
2025-09-11 14:38:37,1077690
2025-09-11 14:38:37,1077708
2025-09-11 14:38:37,1077655
2025-09-11 14:38:37,1077681
2025-09-11 14:38:37,1077775
2025-09-11 14:38:37,1077664
2025-09-11 14:38:37,1077575
2025-09-11 14:38:37,1077615
2025-09-11 14:38:37,1077613
2025-09-11 14:38:37,1077608
2025-09-11 14:38:37,1077611
2025-09-11 14:38:37,1077553
2025-09-11 14:38:37,1077599
2025-09-11 14:38:37,1077501
2025-09-11 14:38:37,1077541
2025-09-11 14:38:37,1077470
2025-09-11 14:38:37,1077424
2025-09-11 14:38:37,1077437
2025-09-11 14:38:38,1077440
2025-09-11 14:38:38,1077421
2025-09-11 14:38:38,1077332
2025-09-11 14:38:38,1077259
2025-09-11 14:38:38,1077163
2025-09-11 14:38:38,1077236
2025-09-11 14:38:38,1077202
2025-09-11 14:38:38,1077198
2025-09-11 14:38:38,1077185
2025-09-11 14:38:38,1077173
2025-09-11 14:38:38,1077142
2025-09-11 14:38:38,1077250
2025-09-11 14:38:38,1077250
2025-09-11 14:38:38,1077283
2025-09-11 14:38:38,1077330
2025-09-11 14:38:38,1077408
2025-09-11 14:38:38,1077409
2025-09-11 14:38:38,1077408
2025-09-11 14:38:38,1077475
2025-09-11 14:38:38,1077497
2025-09-11 14:38:38,1077504
2025-09-11 14:38:38,1077581
2025-09-11 14:38:38,1077619
2025-09-11 14:38:38,1077738
2025-09-11 14:38:38,1077816
2025-09-11 14:38:38,1077904
2025-09-11 14:38:38,1078001
2025-09-11 14:38:38,1078087
2025-09-11 14:38:38,1078167
2025-09-11 14:38:38,1078172
2025-09-11 14:38:38,1078250
2025-09-11 14:38:38,1078306
2025-09-11 14:38:38,1078295
2025-09-11 14:38:38,1078313
2025-09-11 14:38:38,1078203
2025-09-11 14:38:38,1078094
2025-09-11 14:38:38,1077881
2025-09-11 14:38:38,1077659
2025-09-11 14:38:38,1077394
2025-09-11 14:38:38,1076971
2025-09-11 14:38:38,1076612
2025-09-11 14:38:38,1076250
2025-09-11 14:38:38,1075909
2025-09-11 14:38:38,1075656
2025-09-11 14:38:38,1075299
2025-09-11 14:38:38,1075221
2025-09-11 14:38:38,1075018
2025-09-11 14:38:38,1074877
2025-09-11 14:38:38,1074769
2025-09-11 14:38:38,1074742
2025-09-11 14:38:38,1074683
2025-09-11 14:38:38,1074586
2025-09-11 14:38:38,1074643
2025-09-11 14:38:38,1074650
2025-09-11 14:38:38,1074693
2025-09-11 14:38:38,1074636
2025-09-11 14:38:38,1074598
2025-09-11 14:38:38,1074564
2025-09-11 14:38:38,1074551
2025-09-11 14:38:38,1074651
2025-09-11 14:38:38,1074544
2025-09-11 14:38:38,1074592
2025-09-11 14:38:38,1074626
2025-09-11 14:38:38,1074661
2025-09-11 14:38:38,1074709
2025-09-11 14:38:38,1074715
2025-09-11 14:38:38,1074671
2025-09-11 14:38:38,1074653
2025-09-11 14:38:38,1074627
2025-09-11 14:38:38,1074611
2025-09-11 14:38:38,1074654
2025-09-11 14:38:38,1074649
2025-09-11 14:38:38,1074673
2025-09-11 14:38:38,1074650
2025-09-11 14:38:38,1074647
2025-09-11 14:38:38,1074660
2025-09-11 14:38:38,1074664
2025-09-11 14:38:38,1074678
2025-09-11 14:38:38,1074661
2025-09-11 14:38:38,1074702
2025-09-11 14:38:38,1074825
2025-09-11 14:38:38,1074870
2025-09-11 14:38:38,1074956
2025-09-11 14:38:38,1074989
2025-09-11 14:38:38,1075084
2025-09-11 14:38:38,1075074
2025-09-11 14:38:38,1075188
2025-09-11 14:38:38,1075268
2025-09-11 14:38:38,1075340
2025-09-11 14:38:38,1075332
2025-09-11 14:38:38,1075374
2025-09-11 14:38:38,1075445
2025-09-11 14:38:38,1075475
2025-09-11 14:38:38,1075590
2025-09-11 14:38:38,1075695
2025-09-11 14:38:38,1075838
2025-09-11 14:38:38,1075920
2025-09-11 14:38:38,1075957
2025-09-11 14:38:38,1076121
2025-09-11 14:38:38,1076180
2025-09-11 14:38:39,1076288
2025-09-11 14:38:39,1076380
2025-09-11 14:38:39,1076429
2025-09-11 14:38:39,1076426
2025-09-11 14:38:39,1076448
2025-09-11 14:38:39,1076281
2025-09-11 14:38:39,1076115
2025-09-11 14:38:39,1075958
2025-09-11 14:38:39,1075732
2025-09-11 14:38:39,1075356
2025-09-11 14:38:39,1075049
2025-09-11 14:38:39,1074607
2025-09-11 14:38:39,1074349
2025-09-11 14:38:39,1074073
2025-09-11 14:38:39,1073761
2025-09-11 14:38:39,1073531
2025-09-11 14:38:39,1073332
2025-09-11 14:38:39,1073297
2025-09-11 14:38:39,1073173
2025-09-11 14:38:39,1073112
2025-09-11 14:38:39,1073136
2025-09-11 14:38:39,1073089
2025-09-11 14:38:39,1073164
2025-09-11 14:38:39,1073087
2025-09-11 14:38:39,1073157
2025-09-11 14:38:39,1073100
2025-09-11 14:38:39,1073172
2025-09-11 14:38:39,1073133
2025-09-11 14:38:39,1073199
2025-09-11 14:38:39,1073135
2025-09-11 14:38:39,1073154
2025-09-11 14:38:39,1073186
2025-09-11 14:38:39,1073263
2025-09-11 14:38:39,1073336
2025-09-11 14:38:39,1073359
2025-09-11 14:38:39,1073375
2025-09-11 14:38:39,1073372
2025-09-11 14:38:39,1073328
2025-09-11 14:38:39,1073297
2025-09-11 14:38:39,1073334
2025-09-11 14:38:39,1073368
2025-09-11 14:38:39,1073362
2025-09-11 14:38:39,1073335
2025-09-11 14:38:39,1073340
2025-09-11 14:38:39,1073374
2025-09-11 14:38:39,1073401
2025-09-11 14:38:39,1073390
2025-09-11 14:38:39,1073402
2025-09-11 14:38:39,1073379
2025-09-11 14:38:39,1073479
2025-09-11 14:38:39,1073533
2025-09-11 14:38:39,1073614
2025-09-11 14:38:39,1073698
2025-09-11 14:38:39,1073727
2025-09-11 14:38:39,1073828
2025-09-11 14:38:39,1073903
2025-09-11 14:38:39,1073926
2025-09-11 14:38:39,1073953
2025-09-11 14:38:39,1074023
2025-09-11 14:38:39,1074123
2025-09-11 14:38:39,1074186
2025-09-11 14:38:39,1074298
2025-09-11 14:38:39,1074356
2025-09-11 14:38:39,1074386
2025-09-11 14:38:39,1074502
2025-09-11 14:38:39,1074596
2025-09-11 14:38:39,1074721
2025-09-11 14:38:39,1074841
2025-09-11 14:38:39,1074924
2025-09-11 14:38:39,1075009
2025-09-11 14:38:39,1075156
2025-09-11 14:38:39,1075216
2025-09-11 14:38:39,1075320
2025-09-11 14:38:39,1075313
2025-09-11 14:38:39,1075275
2025-09-11 14:38:39,1075194
2025-09-11 14:38:39,1075077
2025-09-11 14:38:39,1074890
2025-09-11 14:38:39,1074644
2025-09-11 14:38:39,1074328
2025-09-11 14:38:39,1073998
2025-09-11 14:38:39,1073682
2025-09-11 14:38:39,1073326
2025-09-11 14:38:39,1073094
2025-09-11 14:38:39,1072868
2025-09-11 14:38:39,1072606
2025-09-11 14:38:39,1072480
2025-09-11 14:38:39,1072357
2025-09-11 14:38:39,1072278
2025-09-11 14:38:39,1072224
2025-09-11 14:38:39,1072142
2025-09-11 14:38:39,1072182
2025-09-11 14:38:39,1072155
2025-09-11 14:38:39,1072255
2025-09-11 14:38:39,1072294
2025-09-11 14:38:39,1072312
2025-09-11 14:38:39,1072298
2025-09-11 14:38:39,1072268
2025-09-11 14:38:39,1072263
2025-09-11 14:38:39,1072351
2025-09-11 14:38:39,1072296
2025-09-11 14:38:40,1072324
2025-09-11 14:38:40,1072388
2025-09-11 14:38:40,1072382
2025-09-11 14:38:40,1072402
2025-09-11 14:38:40,1072455
2025-09-11 14:38:40,1072476
2025-09-11 14:38:40,1072503
2025-09-11 14:38:40,1072459
2025-09-11 14:38:40,1072487
2025-09-11 14:38:40,1072478
2025-09-11 14:38:40,1072562
2025-09-11 14:38:40,1072462
2025-09-11 14:38:40,1072393
2025-09-11 14:38:40,1072427
2025-09-11 14:38:40,1072498
2025-09-11 14:38:40,1072457
2025-09-11 14:38:40,1072487
2025-09-11 14:38:40,1072551
2025-09-11 14:38:40,1072582
2025-09-11 14:38:40,1072549
2025-09-11 14:38:40,1072690
2025-09-11 14:38:40,1072762
2025-09-11 14:38:40,1072771
2025-09-11 14:38:40,1072840
2025-09-11 14:38:40,1072955
2025-09-11 14:38:40,1073032
2025-09-11 14:38:40,1073034
2025-09-11 14:38:40,1073058
2025-09-11 14:38:40,1073160
2025-09-11 14:38:40,1073196
2025-09-11 14:38:40,1073362
2025-09-11 14:38:40,1073305
2025-09-11 14:38:40,1073487
2025-09-11 14:38:40,1073631
2025-09-11 14:38:40,1073768
2025-09-11 14:38:40,1073843
2025-09-11 14:38:40,1073947
2025-09-11 14:38:40,1074027
2025-09-11 14:38:40,1074151
2025-09-11 14:38:40,1074278
2025-09-11 14:38:40,1074300
2025-09-11 14:38:40,1074222
2025-09-11 14:38:40,1074186
2025-09-11 14:38:40,1074094
2025-09-11 14:38:40,1074004
2025-09-11 14:38:40,1073799
2025-09-11 14:38:40,1073445
2025-09-11 14:38:40,1073166
2025-09-11 14:38:40,1072780
2025-09-11 14:38:40,1072423
2025-09-11 14:38:40,1072154
2025-09-11 14:38:40,1071919
2025-09-11 14:38:40,1071650
2025-09-11 14:38:40,1071485
2025-09-11 14:38:40,1071398
2025-09-11 14:38:40,1071231
2025-09-11 14:38:40,1071219
2025-09-11 14:38:40,1071171
2025-09-11 14:38:40,1071210
2025-09-11 14:38:40,1071204
2025-09-11 14:38:40,1071300
2025-09-11 14:38:40,1071321
2025-09-11 14:38:40,1071402
2025-09-11 14:38:40,1071308
2025-09-11 14:38:40,1071429
2025-09-11 14:38:40,1071387
2025-09-11 14:38:40,1071387
2025-09-11 14:38:40,1071451
2025-09-11 14:38:40,1071558
2025-09-11 14:38:40,1071497
2025-09-11 14:38:40,1071625
2025-09-11 14:38:40,1071619
2025-09-11 14:38:40,1071728
2025-09-11 14:38:40,1071724
2025-09-11 14:38:40,1071723
2025-09-11 14:38:40,1071717
2025-09-11 14:38:40,1071688
2025-09-11 14:38:40,1071751
2025-09-11 14:38:40,1071743
2025-09-11 14:38:40,1071810
2025-09-11 14:38:40,1071781
2025-09-11 14:38:40,1071798
2025-09-11 14:38:40,1071844
2025-09-11 14:38:40,1071908
2025-09-11 14:38:40,1071966
2025-09-11 14:38:40,1072061
2025-09-11 14:38:40,1072029
2025-09-11 14:38:40,1072181
2025-09-11 14:38:40,1072190
2025-09-11 14:38:40,1072289
2025-09-11 14:38:40,1072343
2025-09-11 14:38:40,1072432
2025-09-11 14:38:40,1072548
2025-09-11 14:38:40,1072677
2025-09-11 14:38:40,1072795
2025-09-11 14:38:40,1072856
2025-09-11 14:38:40,1072943
2025-09-11 14:38:40,1073046
2025-09-11 14:38:40,1073136
2025-09-11 14:38:40,1073158
2025-09-11 14:38:41,1073328
2025-09-11 14:38:41,1073454
2025-09-11 14:38:41,1073651
2025-09-11 14:38:41,1073820
2025-09-11 14:38:41,1073917
2025-09-11 14:38:41,1074098
2025-09-11 14:38:41,1074296
2025-09-11 14:38:41,1074352
2025-09-11 14:38:41,1074464
2025-09-11 14:38:41,1074543
2025-09-11 14:38:41,1074501
2025-09-11 14:38:41,1074458
2025-09-11 14:38:41,1074379
2025-09-11 14:38:41,1074187
2025-09-11 14:38:41,1073934
2025-09-11 14:38:41,1073671
2025-09-11 14:38:41,1073324
2025-09-11 14:38:41,1073060
2025-09-11 14:38:41,1072829
2025-09-11 14:38:41,1072620
2025-09-11 14:38:41,1072488
2025-09-11 14:38:41,1072386
2025-09-11 14:38:41,1072256
2025-09-11 14:38:41,1072277
2025-09-11 14:38:41,1072233
2025-09-11 14:38:41,1072340
2025-09-11 14:38:41,1072363
2025-09-11 14:38:41,1072394
2025-09-11 14:38:41,1072543
2025-09-11 14:38:41,1072605
2025-09-11 14:38:41,1072657
2025-09-11 14:38:41,1072743
2025-09-11 14:38:41,1072840
2025-09-11 14:38:41,1072977
2025-09-11 14:38:41,1073060
2025-09-11 14:38:41,1073127
2025-09-11 14:38:41,1073228
2025-09-11 14:38:41,1073328
2025-09-11 14:38:41,1073405
2025-09-11 14:38:41,1073457
2025-09-11 14:38:41,1073590
2025-09-11 14:38:41,1073617
2025-09-11 14:38:41,1073685
2025-09-11 14:38:41,1073711
2025-09-11 14:38:41,1073840
2025-09-11 14:38:41,1073926
2025-09-11 14:38:41,1073989
2025-09-11 14:38:41,1074033
2025-09-11 14:38:41,1074121
2025-09-11 14:38:41,1074202
2025-09-11 14:38:41,1074248
2025-09-11 14:38:41,1074329
2025-09-11 14:38:41,1074362
2025-09-11 14:38:41,1074476
2025-09-11 14:38:41,1074608
2025-09-11 14:38:41,1074640
2025-09-11 14:38:41,1074745
2025-09-11 14:38:41,1074913
2025-09-11 14:38:41,1075089
2025-09-11 14:38:41,1075181
2025-09-11 14:38:41,1075364
2025-09-11 14:38:41,1075437
2025-09-11 14:38:41,1075499
2025-09-11 14:38:41,1075642
2025-09-11 14:38:41,1075744
2025-09-11 14:38:41,1075751
2025-09-11 14:38:41,1075951
2025-09-11 14:38:41,1076040
2025-09-11 14:38:41,1076164
2025-09-11 14:38:41,1076338
2025-09-11 14:38:41,1076502
2025-09-11 14:38:41,1076567
2025-09-11 14:38:41,1076724
2025-09-11 14:38:41,1076825
2025-09-11 14:38:41,1076838
2025-09-11 14:38:41,1076831
2025-09-11 14:38:41,1076777
2025-09-11 14:38:41,1076737
2025-09-11 14:38:41,1076599
2025-09-11 14:38:41,1076377
2025-09-11 14:38:41,1076062
2025-09-11 14:38:41,1075845
2025-09-11 14:38:41,1075484
2025-09-11 14:38:41,1075172
2025-09-11 14:38:41,1074879
2025-09-11 14:38:41,1074586
2025-09-11 14:38:41,1074333
2025-09-11 14:38:41,1074187
2025-09-11 14:38:41,1074048
2025-09-11 14:38:41,1073974
2025-09-11 14:38:41,1073806
2025-09-11 14:38:41,1073728
2025-09-11 14:38:41,1073717
2025-09-11 14:38:41,1073777
2025-09-11 14:38:41,1073789
2025-09-11 14:38:41,1073713
2025-09-11 14:38:41,1073707
2025-09-11 14:38:41,1073738
2025-09-11 14:38:41,1073689
2025-09-11 14:38:41,1073731
2025-09-11 14:38:42,1073708
2025-09-11 14:38:42,1073710
2025-09-11 14:38:42,1073709
2025-09-11 14:38:42,1073721
2025-09-11 14:38:42,1073658
2025-09-11 14:38:42,1073670
2025-09-11 14:38:42,1073654
2025-09-11 14:38:42,1073648
2025-09-11 14:38:42,1073573
2025-09-11 14:38:42,1073602
2025-09-11 14:38:42,1073532
2025-09-11 14:38:42,1073522
2025-09-11 14:38:42,1073574
2025-09-11 14:38:42,1073493
2025-09-11 14:38:42,1073414
2025-09-11 14:38:42,1073438
2025-09-11 14:38:42,1073453
2025-09-11 14:38:42,1073334
2025-09-11 14:38:42,1073366
2025-09-11 14:38:42,1073408
2025-09-11 14:38:42,1073314
2025-09-11 14:38:42,1073459
2025-09-11 14:38:42,1073493
2025-09-11 14:38:42,1073513
2025-09-11 14:38:42,1073638
2025-09-11 14:38:42,1073686
2025-09-11 14:38:42,1073689
2025-09-11 14:38:42,1073732
2025-09-11 14:38:42,1073741
2025-09-11 14:38:42,1073878
2025-09-11 14:38:42,1073857
2025-09-11 14:38:42,1073911
2025-09-11 14:38:42,1073926
2025-09-11 14:38:42,1073948
2025-09-11 14:38:42,1074019
2025-09-11 14:38:42,1074108
2025-09-11 14:38:42,1074248
2025-09-11 14:38:42,1074267
2025-09-11 14:38:42,1074401
2025-09-11 14:38:42,1074397
2025-09-11 14:38:42,1074534
2025-09-11 14:38:42,1074557
2025-09-11 14:38:42,1074625
2025-09-11 14:38:42,1074598
2025-09-11 14:38:42,1074577
2025-09-11 14:38:42,1074465
2025-09-11 14:38:42,1074322
2025-09-11 14:38:42,1074115
2025-09-11 14:38:42,1073817
2025-09-11 14:38:42,1073387
2025-09-11 14:38:42,1073037
2025-09-11 14:38:42,1072676
2025-09-11 14:38:42,1072351
2025-09-11 14:38:42,1072036
2025-09-11 14:38:42,1071804
2025-09-11 14:38:42,1071559
2025-09-11 14:38:42,1071443
2025-09-11 14:38:42,1071323
2025-09-11 14:38:42,1071256
2025-09-11 14:38:42,1071237
2025-09-11 14:38:42,1071106
2025-09-11 14:38:42,1071115
2025-09-11 14:38:42,1071106
2025-09-11 14:38:42,1071145
2025-09-11 14:38:42,1071113
2025-09-11 14:38:42,1071079
2025-09-11 14:38:42,1071156
2025-09-11 14:38:42,1071049
2025-09-11 14:38:42,1071058
2025-09-11 14:38:42,1071052
2025-09-11 14:38:42,1071152
2025-09-11 14:38:42,1071183
2025-09-11 14:38:42,1071199
2025-09-11 14:38:42,1071287
2025-09-11 14:38:42,1071304
2025-09-11 14:38:42,1071334
2025-09-11 14:38:42,1071388
2025-09-11 14:38:42,1071339
2025-09-11 14:38:42,1071333
2025-09-11 14:38:42,1071316
2025-09-11 14:38:42,1071411
2025-09-11 14:38:42,1071325
2025-09-11 14:38:42,1071394
2025-09-11 14:38:42,1071335
2025-09-11 14:38:42,1071391
2025-09-11 14:38:42,1071507
2025-09-11 14:38:42,1071441
2025-09-11 14:38:42,1071543
2025-09-11 14:38:42,1071509
2025-09-11 14:38:42,1071634
2025-09-11 14:38:42,1071687
2025-09-11 14:38:42,1071733
2025-09-11 14:38:42,1071757
2025-09-11 14:38:42,1071869
2025-09-11 14:38:42,1071866
2025-09-11 14:38:42,1072000
2025-09-11 14:38:42,1072093
2025-09-11 14:38:42,1072131
2025-09-11 14:38:42,1072202
2025-09-11 14:38:42,1072251
2025-09-11 14:38:43,1072321
2025-09-11 14:38:43,1072402
2025-09-11 14:38:43,1072476
2025-09-11 14:38:43,1072518
2025-09-11 14:38:43,1072664
2025-09-11 14:38:43,1072829
2025-09-11 14:38:43,1072948
2025-09-11 14:38:43,1073023
2025-09-11 14:38:43,1073128
2025-09-11 14:38:43,1073246
2025-09-11 14:38:43,1073312
2025-09-11 14:38:43,1073362
2025-09-11 14:38:43,1073411
2025-09-11 14:38:43,1073367
2025-09-11 14:38:43,1073227
2025-09-11 14:38:43,1073168
2025-09-11 14:38:43,1072894
2025-09-11 14:38:43,1072649
2025-09-11 14:38:43,1072332
2025-09-11 14:38:43,1071979
2025-09-11 14:38:43,1071574
2025-09-11 14:38:43,1071276
2025-09-11 14:38:43,1070951
2025-09-11 14:38:43,1070769
2025-09-11 14:38:43,1070592
2025-09-11 14:38:43,1070447
2025-09-11 14:38:43,1070411
2025-09-11 14:38:43,1070341
2025-09-11 14:38:43,1070381
2025-09-11 14:38:43,1070357
2025-09-11 14:38:43,1070347
2025-09-11 14:38:43,1070357
2025-09-11 14:38:43,1070341
2025-09-11 14:38:43,1070396
2025-09-11 14:38:43,1070381
2025-09-11 14:38:43,1070382
2025-09-11 14:38:43,1070393
2025-09-11 14:38:43,1070383
2025-09-11 14:38:43,1070467
2025-09-11 14:38:43,1070431
2025-09-11 14:38:43,1070548
2025-09-11 14:38:43,1070569
2025-09-11 14:38:43,1070641
2025-09-11 14:38:43,1070665
2025-09-11 14:38:43,1070673
2025-09-11 14:38:43,1070727
2025-09-11 14:38:43,1070715
2025-09-11 14:38:43,1070720
2025-09-11 14:38:43,1070707
2025-09-11 14:38:43,1070713
2025-09-11 14:38:43,1070755
2025-09-11 14:38:43,1070706
2025-09-11 14:38:43,1070753
2025-09-11 14:38:43,1070827
2025-09-11 14:38:43,1070814
2025-09-11 14:38:43,1070782
2025-09-11 14:38:43,1070810
2025-09-11 14:38:43,1070893
2025-09-11 14:38:43,1070961
2025-09-11 14:38:43,1070980
2025-09-11 14:38:43,1071107
2025-09-11 14:38:43,1071186
2025-09-11 14:38:43,1071227
2025-09-11 14:38:43,1071202
2025-09-11 14:38:43,1071411
2025-09-11 14:38:43,1071481
2025-09-11 14:38:43,1071580
2025-09-11 14:38:43,1071538
2025-09-11 14:38:43,1071635
2025-09-11 14:38:43,1071697
2025-09-11 14:38:43,1071726
2025-09-11 14:38:43,1071861
2025-09-11 14:38:43,1072006
2025-09-11 14:38:43,1072071
2025-09-11 14:38:43,1072261
2025-09-11 14:38:43,1072335
2025-09-11 14:38:43,1072420
2025-09-11 14:38:43,1072523
2025-09-11 14:38:43,1072670
2025-09-11 14:38:43,1072728
2025-09-11 14:38:43,1072777
2025-09-11 14:38:43,1072767
2025-09-11 14:38:43,1072664
2025-09-11 14:38:43,1072574
2025-09-11 14:38:43,1072490
2025-09-11 14:38:43,1072198
2025-09-11 14:38:43,1071883
2025-09-11 14:38:43,1071518
2025-09-11 14:38:43,1071202
2025-09-11 14:38:43,1070851
2025-09-11 14:38:43,1070561
2025-09-11 14:38:43,1070306
2025-09-11 14:38:43,1070140
2025-09-11 14:38:43,1069973
2025-09-11 14:38:43,1069920
2025-09-11 14:38:43,1069771
2025-09-11 14:38:43,1069641
2025-09-11 14:38:43,1069691
2025-09-11 14:38:43,1069727
2025-09-11 14:38:43,1069737
2025-09-11 14:38:44,1069720
2025-09-11 14:38:44,1069815
2025-09-11 14:38:44,1069828
2025-09-11 14:38:44,1069902
2025-09-11 14:38:44,1069931
2025-09-11 14:38:44,1069913
2025-09-11 14:38:44,1069951
2025-09-11 14:38:44,1069934
2025-09-11 14:38:44,1070076
2025-09-11 14:38:44,1070047
2025-09-11 14:38:44,1070113
2025-09-11 14:38:44,1070170
2025-09-11 14:38:44,1070203
2025-09-11 14:38:44,1070249
2025-09-11 14:38:44,1070245
2025-09-11 14:38:44,1070257
2025-09-11 14:38:44,1070299
2025-09-11 14:38:44,1070337
2025-09-11 14:38:44,1070352
2025-09-11 14:38:44,1070311
2025-09-11 14:38:44,1070413
2025-09-11 14:38:44,1070385
2025-09-11 14:38:44,1070452
2025-09-11 14:38:44,1070509
2025-09-11 14:38:44,1070542
2025-09-11 14:38:44,1070650
2025-09-11 14:38:44,1070728
2025-09-11 14:38:44,1070930
2025-09-11 14:38:44,1070904
2025-09-11 14:38:44,1071025
2025-09-11 14:38:44,1071068
2025-09-11 14:38:44,1071195
2025-09-11 14:38:44,1071316
2025-09-11 14:38:44,1071416
2025-09-11 14:38:44,1071432
2025-09-11 14:38:44,1071522
2025-09-11 14:38:44,1071667
2025-09-11 14:38:44,1071853
2025-09-11 14:38:44,1071862
2025-09-11 14:38:44,1071935
2025-09-11 14:38:44,1072132
2025-09-11 14:38:44,1072324
2025-09-11 14:38:44,1072415
2025-09-11 14:38:44,1072532
2025-09-11 14:38:44,1072740
2025-09-11 14:38:44,1072870
2025-09-11 14:38:44,1073100
2025-09-11 14:38:44,1073242
2025-09-11 14:38:44,1073407
2025-09-11 14:38:44,1073441
2025-09-11 14:38:44,1073439
2025-09-11 14:38:44,1073441
2025-09-11 14:38:44,1073364
2025-09-11 14:38:44,1073210
2025-09-11 14:38:44,1073083
2025-09-11 14:38:44,1072796
2025-09-11 14:38:44,1072532
2025-09-11 14:38:44,1072131
2025-09-11 14:38:44,1071970
2025-09-11 14:38:44,1071730
2025-09-11 14:38:44,1071531
2025-09-11 14:38:44,1071444
2025-09-11 14:38:44,1071363
2025-09-11 14:38:44,1071330
2025-09-11 14:38:44,1071303
2025-09-11 14:38:44,1071311
2025-09-11 14:38:44,1071440
2025-09-11 14:38:44,1071562
2025-09-11 14:38:44,1071644
2025-09-11 14:38:44,1071773
2025-09-11 14:38:44,1071819
2025-09-11 14:38:44,1071856
2025-09-11 14:38:44,1071987
2025-09-11 14:38:44,1072054
2025-09-11 14:38:44,1072134
2025-09-11 14:38:44,1072279
2025-09-11 14:38:44,1072433
2025-09-11 14:38:44,1072490
2025-09-11 14:38:44,1072578
2025-09-11 14:38:44,1072725
2025-09-11 14:38:44,1072789
2025-09-11 14:38:44,1072798
2025-09-11 14:38:44,1072871
2025-09-11 14:38:44,1072954
2025-09-11 14:38:44,1072981
2025-09-11 14:38:44,1073151
2025-09-11 14:38:44,1073128
2025-09-11 14:38:44,1073231
2025-09-11 14:38:44,1073299
2025-09-11 14:38:44,1073367
2025-09-11 14:38:44,1073427
2025-09-11 14:38:44,1073468
2025-09-11 14:38:44,1073602
2025-09-11 14:38:44,1073678
2025-09-11 14:38:44,1073763
2025-09-11 14:38:44,1073861
2025-09-11 14:38:44,1074037
2025-09-11 14:38:44,1074148
2025-09-11 14:38:44,1074369
2025-09-11 14:38:44,1074466
2025-09-11 14:38:44,1074601
2025-09-11 14:38:45,1074766
2025-09-11 14:38:45,1074885
2025-09-11 14:38:45,1075017
2025-09-11 14:38:45,1075112
2025-09-11 14:38:45,1075226
2025-09-11 14:38:45,1075358
2025-09-11 14:38:45,1075516
2025-09-11 14:38:45,1075682
2025-09-11 14:38:45,1075797
2025-09-11 14:38:45,1075990
2025-09-11 14:38:45,1076133
2025-09-11 14:38:45,1076354
2025-09-11 14:38:45,1076480
2025-09-11 14:38:45,1076677
2025-09-11 14:38:45,1076834
2025-09-11 14:38:45,1076838
2025-09-11 14:38:45,1076827
2025-09-11 14:38:45,1076831
2025-09-11 14:38:45,1076823
2025-09-11 14:38:45,1076678
2025-09-11 14:38:45,1076584
2025-09-11 14:38:45,1076300
2025-09-11 14:38:45,1076032
2025-09-11 14:38:45,1075792
2025-09-11 14:38:45,1075458
2025-09-11 14:38:45,1075149
2025-09-11 14:38:45,1074906
2025-09-11 14:38:45,1074716
2025-09-11 14:38:45,1074597
2025-09-11 14:38:45,1074504
2025-09-11 14:38:45,1074457
2025-09-11 14:38:45,1074428
2025-09-11 14:38:45,1074392
2025-09-11 14:38:45,1074394
2025-09-11 14:38:45,1074512
2025-09-11 14:38:45,1074545
2025-09-11 14:38:45,1074656
2025-09-11 14:38:45,1074688
2025-09-11 14:38:45,1074648
2025-09-11 14:38:45,1074667
2025-09-11 14:38:45,1074748
2025-09-11 14:38:45,1074754
2025-09-11 14:38:45,1074748
2025-09-11 14:38:45,1074790
2025-09-11 14:38:45,1074767
2025-09-11 14:38:45,1074780
2025-09-11 14:38:45,1074768
2025-09-11 14:38:45,1074771
2025-09-11 14:38:45,1074779
2025-09-11 14:38:45,1074696
2025-09-11 14:38:45,1074671
2025-09-11 14:38:45,1074605
2025-09-11 14:38:45,1074572
2025-09-11 14:38:45,1074441
2025-09-11 14:38:45,1074446
2025-09-11 14:38:45,1074434
2025-09-11 14:38:45,1074391
2025-09-11 14:38:45,1074273
2025-09-11 14:38:45,1074196
2025-09-11 14:38:45,1074195
2025-09-11 14:38:45,1074122
2025-09-11 14:38:45,1074131
2025-09-11 14:38:45,1074202
2025-09-11 14:38:45,1074120
2025-09-11 14:38:45,1074220
2025-09-11 14:38:45,1074142
2025-09-11 14:38:45,1074220
2025-09-11 14:38:45,1074256
2025-09-11 14:38:45,1074284
2025-09-11 14:38:45,1074286
2025-09-11 14:38:45,1074234
2025-09-11 14:38:45,1074293
2025-09-11 14:38:45,1074267
2025-09-11 14:38:45,1074358
2025-09-11 14:38:45,1074368
2025-09-11 14:38:45,1074458
2025-09-11 14:38:45,1074544
2025-09-11 14:38:45,1074597
2025-09-11 14:38:45,1074662
2025-09-11 14:38:45,1074784
2025-09-11 14:38:45,1074843
2025-09-11 14:38:45,1074942
2025-09-11 14:38:45,1074948
2025-09-11 14:38:45,1075095
2025-09-11 14:38:45,1075159
2025-09-11 14:38:45,1075238
2025-09-11 14:38:45,1075307
2025-09-11 14:38:45,1075264
2025-09-11 14:38:45,1075236
2025-09-11 14:38:45,1075237
2025-09-11 14:38:45,1075108
2025-09-11 14:38:45,1075005
2025-09-11 14:38:45,1074723
2025-09-11 14:38:45,1074386
2025-09-11 14:38:45,1073958
2025-09-11 14:38:45,1073500
2025-09-11 14:38:45,1073130
2025-09-11 14:38:45,1072806
2025-09-11 14:38:45,1072539
2025-09-11 14:38:45,1072233
2025-09-11 14:38:46,1072041
2025-09-11 14:38:46,1071857
2025-09-11 14:38:46,1071737
2025-09-11 14:38:46,1071601
2025-09-11 14:38:46,1071599
2025-09-11 14:38:46,1071531
2025-09-11 14:38:46,1071514
2025-09-11 14:38:46,1071493
2025-09-11 14:38:46,1071477
2025-09-11 14:38:46,1071407
2025-09-11 14:38:46,1071438
2025-09-11 14:38:46,1071433
2025-09-11 14:38:46,1071381
2025-09-11 14:38:46,1071340
2025-09-11 14:38:46,1071378
2025-09-11 14:38:46,1071393
2025-09-11 14:38:46,1071434
2025-09-11 14:38:46,1071444
2025-09-11 14:38:46,1071471
2025-09-11 14:38:46,1071506
2025-09-11 14:38:46,1071425
2025-09-11 14:38:46,1071422
2025-09-11 14:38:46,1071425
2025-09-11 14:38:46,1071420
2025-09-11 14:38:46,1071454
2025-09-11 14:38:46,1071447
2025-09-11 14:38:46,1071406
2025-09-11 14:38:46,1071398
2025-09-11 14:38:46,1071454
2025-09-11 14:38:46,1071406
2025-09-11 14:38:46,1071410
2025-09-11 14:38:46,1071497
2025-09-11 14:38:46,1071420
2025-09-11 14:38:46,1071523
2025-09-11 14:38:46,1071520
2025-09-11 14:38:46,1071629
2025-09-11 14:38:46,1071600
2025-09-11 14:38:46,1071741
2025-09-11 14:38:46,1071785
2025-09-11 14:38:46,1071881
2025-09-11 14:38:46,1071955
2025-09-11 14:38:46,1071950
2025-09-11 14:38:46,1072135
2025-09-11 14:38:46,1072087
2025-09-11 14:38:46,1072208
2025-09-11 14:38:46,1072248
2025-09-11 14:38:46,1072335
2025-09-11 14:38:46,1072379
2025-09-11 14:38:46,1072492
2025-09-11 14:38:46,1072583
2025-09-11 14:38:46,1072736
2025-09-11 14:38:46,1072797
2025-09-11 14:38:46,1072902
2025-09-11 14:38:46,1073079
2025-09-11 14:38:46,1073156
2025-09-11 14:38:46,1073208
2025-09-11 14:38:46,1073293
2025-09-11 14:38:46,1073427
2025-09-11 14:38:46,1073515
2025-09-11 14:38:46,1073607
2025-09-11 14:38:46,1073721
2025-09-11 14:38:46,1073887
