timestamp,value
2025-09-04 16:39:05,157248
2025-09-04 16:39:05,104232
2025-09-04 16:39:05,104141
2025-09-04 16:39:05,104131
2025-09-04 16:39:05,104061
2025-09-04 16:39:05,104086
2025-09-04 16:39:05,104100
2025-09-04 16:39:05,104061
2025-09-04 16:39:05,104102
2025-09-04 16:39:05,104092
2025-09-04 16:39:05,104107
2025-09-04 16:39:05,104187
2025-09-04 16:39:05,104194
2025-09-04 16:39:05,104232
2025-09-04 16:39:05,104277
2025-09-04 16:39:05,104319
2025-09-04 16:39:05,104387
2025-09-04 16:39:05,104406
2025-09-04 16:39:05,104409
2025-09-04 16:39:05,104467
2025-09-04 16:39:05,104560
2025-09-04 16:39:05,104558
2025-09-04 16:39:05,104591
2025-09-04 16:39:05,104593
2025-09-04 16:39:05,52254
2025-09-04 16:39:05,156195
2025-09-04 16:39:05,156220
2025-09-04 16:39:05,156163
2025-09-04 16:39:05,156124
2025-09-04 16:39:05,156070
2025-09-04 16:39:05,155900
2025-09-04 16:39:05,155756
2025-09-04 16:39:05,155570
2025-09-04 16:39:05,155460
2025-09-04 16:39:05,155486
2025-09-04 16:39:05,155419
2025-09-04 16:39:06,155417
2025-09-04 16:39:06,155421
2025-09-04 16:39:06,361860
2025-09-04 16:39:06,295702
2025-09-04 16:39:06,295911
2025-09-04 16:39:06,296295
2025-09-04 16:39:06,296799
2025-09-04 16:39:06,297192
2025-09-04 16:39:06,297322
2025-09-04 16:39:06,297476
2025-09-04 16:39:06,297514
2025-09-04 16:39:06,297439
2025-09-04 16:39:06,297463
2025-09-04 16:39:06,297410
2025-09-04 16:39:06,297406
2025-09-04 16:39:06,297582
2025-09-04 16:39:06,1472066
2025-09-04 16:39:06,1493610
2025-09-04 16:39:06,1488300
2025-09-04 16:39:06,1487702
2025-09-04 16:39:06,1491253
2025-09-04 16:39:06,1496322
2025-09-04 16:39:06,1500295
2025-09-04 16:39:06,1503451
2025-09-04 16:39:06,1505581
2025-09-04 16:39:06,1507365
2025-09-04 16:39:06,1509069
2025-09-04 16:39:06,1511390
2025-09-04 16:39:06,1513480
2025-09-04 16:39:06,1514335
2025-09-04 16:39:06,1536464
2025-09-04 16:39:06,1511234
2025-09-04 16:39:06,1510583
2025-09-04 16:39:06,1509863
2025-09-04 16:39:06,1509202
2025-09-04 16:39:06,1509202
2025-09-04 16:39:06,1508730
2025-09-04 16:39:06,1508515
2025-09-04 16:39:06,1508384
2025-09-04 16:39:06,1507864
2025-09-04 16:39:06,1506750
2025-09-04 16:39:06,1505150
2025-09-04 16:39:06,1503321
2025-09-04 16:39:06,1501393
2025-09-04 16:39:06,1499644
2025-09-04 16:39:06,1498271
2025-09-04 16:39:06,1497441
2025-09-04 16:39:06,1496718
2025-09-04 16:39:06,1496237
2025-09-04 16:39:06,1495906
2025-09-04 16:39:06,1495636
2025-09-04 16:39:06,1495418
2025-09-04 16:39:06,1495374
2025-09-04 16:39:06,1495702
2025-09-04 16:39:06,1495984
2025-09-04 16:39:06,1496094
2025-09-04 16:39:06,1496021
2025-09-04 16:39:06,1496125
2025-09-04 16:39:06,1496229
2025-09-04 16:39:06,1496140
2025-09-04 16:39:06,1496162
2025-09-04 16:39:06,1496128
2025-09-04 16:39:06,1496289
2025-09-04 16:39:06,1496599
2025-09-04 16:39:06,1496852
2025-09-04 16:39:06,1497143
2025-09-04 16:39:06,1497266
2025-09-04 16:39:06,1497482
2025-09-04 16:39:06,1497633
2025-09-04 16:39:06,1497711
2025-09-04 16:39:06,1497683
2025-09-04 16:39:06,1497419
2025-09-04 16:39:06,1497075
2025-09-04 16:39:06,1496602
2025-09-04 16:39:06,1496044
2025-09-04 16:39:06,1495460
2025-09-04 16:39:06,1494845
2025-09-04 16:39:06,1494273
2025-09-04 16:39:06,1493637
2025-09-04 16:39:06,1492948
2025-09-04 16:39:06,1492343
2025-09-04 16:39:06,1491878
2025-09-04 16:39:06,1491497
2025-09-04 16:39:06,1491231
2025-09-04 16:39:06,1490843
2025-09-04 16:39:06,1490577
2025-09-04 16:39:06,1490368
2025-09-04 16:39:06,1490072
2025-09-04 16:39:06,1489803
2025-09-04 16:39:06,1489364
2025-09-04 16:39:06,1489167
2025-09-04 16:39:06,1488899
2025-09-04 16:39:06,1488746
2025-09-04 16:39:06,1488402
2025-09-04 16:39:06,1488452
2025-09-04 16:39:06,1488346
2025-09-04 16:39:06,1488275
2025-09-04 16:39:06,1488151
2025-09-04 16:39:06,1488042
2025-09-04 16:39:06,1488031
2025-09-04 16:39:06,1487910
2025-09-04 16:39:07,1487807
2025-09-04 16:39:07,1487846
2025-09-04 16:39:07,1487693
2025-09-04 16:39:07,1487592
2025-09-04 16:39:07,1487638
2025-09-04 16:39:07,1487578
2025-09-04 16:39:07,1487441
2025-09-04 16:39:07,1487553
2025-09-04 16:39:07,1487671
2025-09-04 16:39:07,1487789
2025-09-04 16:39:07,1487785
2025-09-04 16:39:07,1487880
2025-09-04 16:39:07,1487875
2025-09-04 16:39:07,1487957
2025-09-04 16:39:07,1487939
2025-09-04 16:39:07,1487812
2025-09-04 16:39:07,1487779
2025-09-04 16:39:07,1487790
2025-09-04 16:39:07,1487685
2025-09-04 16:39:07,1487863
2025-09-04 16:39:07,1487867
2025-09-04 16:39:07,1487733
2025-09-04 16:39:07,1487863
2025-09-04 16:39:07,1487870
2025-09-04 16:39:07,1487766
2025-09-04 16:39:07,1487920
2025-09-04 16:39:07,1487951
2025-09-04 16:39:07,1487833
2025-09-04 16:39:07,1487812
2025-09-04 16:39:07,1487939
2025-09-04 16:39:07,1487929
2025-09-04 16:39:07,1488010
2025-09-04 16:39:07,1487917
2025-09-04 16:39:07,1487915
2025-09-04 16:39:07,1487874
2025-09-04 16:39:07,1487879
2025-09-04 16:39:07,1487889
2025-09-04 16:39:07,1487770
2025-09-04 16:39:07,1487721
2025-09-04 16:39:07,1487616
2025-09-04 16:39:07,1487426
2025-09-04 16:39:07,1487343
2025-09-04 16:39:07,1487104
2025-09-04 16:39:07,1486956
2025-09-04 16:39:07,1486609
2025-09-04 16:39:07,1485984
2025-09-04 16:39:07,1485325
2025-09-04 16:39:07,1484571
2025-09-04 16:39:07,1483798
2025-09-04 16:39:07,1483281
2025-09-04 16:39:07,1482556
2025-09-04 16:39:07,1482089
2025-09-04 16:39:07,1481531
2025-09-04 16:39:07,1481130
2025-09-04 16:39:07,1480616
2025-09-04 16:39:07,1480213
2025-09-04 16:39:07,1479814
2025-09-04 16:39:07,1479471
2025-09-04 16:39:07,1479179
2025-09-04 16:39:07,1478883
2025-09-04 16:39:07,1478678
2025-09-04 16:39:07,1478419
2025-09-04 16:39:07,1478137
2025-09-04 16:39:07,1477993
2025-09-04 16:39:07,1477742
2025-09-04 16:39:07,1477436
2025-09-04 16:39:07,1477325
2025-09-04 16:39:07,1477213
2025-09-04 16:39:07,1477133
2025-09-04 16:39:07,1476959
2025-09-04 16:39:07,1476977
2025-09-04 16:39:07,1476883
2025-09-04 16:39:07,1476795
2025-09-04 16:39:07,1476748
2025-09-04 16:39:07,1476636
2025-09-04 16:39:07,1476612
2025-09-04 16:39:07,1476595
2025-09-04 16:39:07,1476462
2025-09-04 16:39:07,1476340
2025-09-04 16:39:07,1476138
2025-09-04 16:39:07,1476147
2025-09-04 16:39:07,1476056
2025-09-04 16:39:07,1475910
2025-09-04 16:39:07,1475807
2025-09-04 16:39:07,1475747
2025-09-04 16:39:07,1475754
2025-09-04 16:39:07,1475775
2025-09-04 16:39:07,1475688
2025-09-04 16:39:07,1475734
2025-09-04 16:39:07,1475712
2025-09-04 16:39:07,1475671
2025-09-04 16:39:07,1475726
2025-09-04 16:39:07,1475752
2025-09-04 16:39:07,1475740
2025-09-04 16:39:07,1475668
2025-09-04 16:39:07,1475736
2025-09-04 16:39:07,1475782
2025-09-04 16:39:07,1475703
2025-09-04 16:39:07,1475674
2025-09-04 16:39:07,1475693
2025-09-04 16:39:08,1475620
2025-09-04 16:39:08,1475649
2025-09-04 16:39:08,1475652
2025-09-04 16:39:08,1475755
2025-09-04 16:39:08,1475676
2025-09-04 16:39:08,1475680
2025-09-04 16:39:08,1475828
2025-09-04 16:39:08,1475730
2025-09-04 16:39:08,1475761
2025-09-04 16:39:08,1475705
2025-09-04 16:39:08,1475745
2025-09-04 16:39:08,1475779
2025-09-04 16:39:08,1475872
2025-09-04 16:39:08,1475953
2025-09-04 16:39:08,1475925
2025-09-04 16:39:08,1475938
2025-09-04 16:39:08,1476010
2025-09-04 16:39:08,1476105
2025-09-04 16:39:08,1476130
2025-09-04 16:39:08,1476204
2025-09-04 16:39:08,1476211
2025-09-04 16:39:08,1476334
2025-09-04 16:39:08,1476373
2025-09-04 16:39:08,1476442
2025-09-04 16:39:08,1476483
2025-09-04 16:39:08,1476343
2025-09-04 16:39:08,1476171
2025-09-04 16:39:08,1475567
2025-09-04 16:39:08,1474816
2025-09-04 16:39:08,1474023
2025-09-04 16:39:08,1473237
2025-09-04 16:39:08,1472540
2025-09-04 16:39:08,1471920
2025-09-04 16:39:08,1471301
2025-09-04 16:39:08,1470732
2025-09-04 16:39:08,1470381
2025-09-04 16:39:08,1469861
2025-09-04 16:39:08,1469528
2025-09-04 16:39:08,1469246
2025-09-04 16:39:08,1469005
2025-09-04 16:39:08,1468777
2025-09-04 16:39:08,1468601
2025-09-04 16:39:08,1468529
2025-09-04 16:39:08,1468265
2025-09-04 16:39:08,1468092
2025-09-04 16:39:08,1468068
2025-09-04 16:39:08,1467869
2025-09-04 16:39:08,1467881
2025-09-04 16:39:08,1467714
2025-09-04 16:39:08,1467635
2025-09-04 16:39:08,1467803
2025-09-04 16:39:08,1467752
2025-09-04 16:39:08,1467753
2025-09-04 16:39:08,1467779
2025-09-04 16:39:08,1467750
2025-09-04 16:39:08,1467664
2025-09-04 16:39:08,1467663
2025-09-04 16:39:08,1467542
2025-09-04 16:39:08,1467493
2025-09-04 16:39:08,1467403
2025-09-04 16:39:08,1467229
2025-09-04 16:39:08,1466986
2025-09-04 16:39:08,1466956
2025-09-04 16:39:08,1466776
2025-09-04 16:39:08,1466640
2025-09-04 16:39:08,1466581
2025-09-04 16:39:08,1466487
2025-09-04 16:39:08,1466385
2025-09-04 16:39:08,1466286
2025-09-04 16:39:08,1466381
2025-09-04 16:39:08,1466257
2025-09-04 16:39:08,1466329
2025-09-04 16:39:08,1466392
2025-09-04 16:39:08,1466338
2025-09-04 16:39:08,1466300
2025-09-04 16:39:08,1466421
2025-09-04 16:39:08,1466461
2025-09-04 16:39:08,1466561
2025-09-04 16:39:08,1466497
2025-09-04 16:39:08,1466603
2025-09-04 16:39:08,1466550
2025-09-04 16:39:08,1466677
2025-09-04 16:39:08,1466750
2025-09-04 16:39:08,1466805
2025-09-04 16:39:08,1466870
2025-09-04 16:39:08,1466940
2025-09-04 16:39:08,1466948
2025-09-04 16:39:08,1467027
2025-09-04 16:39:08,1467053
2025-09-04 16:39:08,1467115
2025-09-04 16:39:08,1467167
2025-09-04 16:39:08,1467160
2025-09-04 16:39:08,1467136
2025-09-04 16:39:08,1467193
2025-09-04 16:39:08,1467171
2025-09-04 16:39:08,1467190
2025-09-04 16:39:08,1467185
2025-09-04 16:39:08,1467261
2025-09-04 16:39:08,1467217
2025-09-04 16:39:08,1467357
2025-09-04 16:39:09,1467269
2025-09-04 16:39:09,1467380
2025-09-04 16:39:09,1467347
2025-09-04 16:39:09,1467342
2025-09-04 16:39:09,1467455
2025-09-04 16:39:09,1467438
2025-09-04 16:39:09,1467432
2025-09-04 16:39:09,1467320
2025-09-04 16:39:09,1467013
2025-09-04 16:39:09,1466496
2025-09-04 16:39:09,1465622
2025-09-04 16:39:09,1464905
2025-09-04 16:39:09,1464093
2025-09-04 16:39:09,1463402
2025-09-04 16:39:09,1462812
2025-09-04 16:39:09,1462269
2025-09-04 16:39:09,1461811
2025-09-04 16:39:09,1461355
2025-09-04 16:39:09,1460838
2025-09-04 16:39:09,1460582
2025-09-04 16:39:09,1460315
2025-09-04 16:39:09,1460077
2025-09-04 16:39:09,1459976
2025-09-04 16:39:09,1459778
2025-09-04 16:39:09,1459648
2025-09-04 16:39:09,1459535
2025-09-04 16:39:09,1459450
2025-09-04 16:39:09,1459368
2025-09-04 16:39:09,1459272
2025-09-04 16:39:09,1459214
2025-09-04 16:39:09,1459144
2025-09-04 16:39:09,1459237
2025-09-04 16:39:09,1459281
2025-09-04 16:39:09,1459307
2025-09-04 16:39:09,1459321
2025-09-04 16:39:09,1459257
2025-09-04 16:39:09,1459231
2025-09-04 16:39:09,1459149
2025-09-04 16:39:09,1459094
2025-09-04 16:39:09,1458973
2025-09-04 16:39:09,1458895
2025-09-04 16:39:09,1458824
2025-09-04 16:39:09,1458606
2025-09-04 16:39:09,1458467
2025-09-04 16:39:09,1458415
2025-09-04 16:39:09,1458359
2025-09-04 16:39:09,1458338
2025-09-04 16:39:09,1458188
2025-09-04 16:39:09,1458205
2025-09-04 16:39:09,1458136
2025-09-04 16:39:09,1458196
2025-09-04 16:39:09,1458333
2025-09-04 16:39:09,1458281
2025-09-04 16:39:09,1458330
2025-09-04 16:39:09,1458263
2025-09-04 16:39:09,1458442
2025-09-04 16:39:09,1458392
2025-09-04 16:39:09,1458523
2025-09-04 16:39:09,1458560
2025-09-04 16:39:09,1458624
2025-09-04 16:39:09,1458626
2025-09-04 16:39:09,1458787
2025-09-04 16:39:09,1458781
2025-09-04 16:39:09,1458881
2025-09-04 16:39:09,1458890
2025-09-04 16:39:09,1458983
2025-09-04 16:39:09,1459000
2025-09-04 16:39:09,1459005
2025-09-04 16:39:09,1459113
2025-09-04 16:39:09,1459128
2025-09-04 16:39:09,1459134
2025-09-04 16:39:09,1459267
2025-09-04 16:39:09,1459341
2025-09-04 16:39:09,1459327
2025-09-04 16:39:09,1459435
2025-09-04 16:39:09,1459468
2025-09-04 16:39:09,1459532
2025-09-04 16:39:09,1459500
2025-09-04 16:39:09,1459516
2025-09-04 16:39:09,1459506
2025-09-04 16:39:09,1459499
2025-09-04 16:39:09,1459619
2025-09-04 16:39:09,1459686
2025-09-04 16:39:09,1459777
2025-09-04 16:39:09,1459827
2025-09-04 16:39:09,1459864
2025-09-04 16:39:09,1460035
2025-09-04 16:39:09,1460095
2025-09-04 16:39:09,1460193
2025-09-04 16:39:09,1460253
2025-09-04 16:39:09,1460276
2025-09-04 16:39:09,1460222
2025-09-04 16:39:09,1459866
2025-09-04 16:39:09,1459272
2025-09-04 16:39:09,1458408
2025-09-04 16:39:09,1457448
2025-09-04 16:39:09,1456627
2025-09-04 16:39:09,1455865
2025-09-04 16:39:09,1455095
2025-09-04 16:39:10,1454544
2025-09-04 16:39:10,1453874
2025-09-04 16:39:10,1453327
2025-09-04 16:39:10,1452954
2025-09-04 16:39:10,1452512
2025-09-04 16:39:10,1452168
2025-09-04 16:39:10,1451901
2025-09-04 16:39:10,1451682
2025-09-04 16:39:10,1451497
2025-09-04 16:39:10,1451369
2025-09-04 16:39:10,1451283
2025-09-04 16:39:10,1451075
2025-09-04 16:39:10,1450998
2025-09-04 16:39:10,1450993
2025-09-04 16:39:10,1450787
2025-09-04 16:39:10,1450740
2025-09-04 16:39:10,1450756
2025-09-04 16:39:10,1450814
2025-09-04 16:39:10,1450856
2025-09-04 16:39:10,1450955
2025-09-04 16:39:10,1450865
2025-09-04 16:39:10,1450855
2025-09-04 16:39:10,1450957
2025-09-04 16:39:10,1450855
2025-09-04 16:39:10,1450872
2025-09-04 16:39:10,1450732
2025-09-04 16:39:10,1450716
2025-09-04 16:39:10,1450607
2025-09-04 16:39:10,1450403
2025-09-04 16:39:10,1450376
2025-09-04 16:39:10,1450137
2025-09-04 16:39:10,1450079
2025-09-04 16:39:10,1450036
2025-09-04 16:39:10,1449949
2025-09-04 16:39:10,1449930
2025-09-04 16:39:10,1449845
2025-09-04 16:39:10,1449798
2025-09-04 16:39:10,1449816
2025-09-04 16:39:10,1449800
2025-09-04 16:39:10,1449855
2025-09-04 16:39:10,1449882
2025-09-04 16:39:10,1449877
2025-09-04 16:39:10,1449925
2025-09-04 16:39:10,1449985
2025-09-04 16:39:10,1450130
2025-09-04 16:39:10,1450328
2025-09-04 16:39:10,1450456
2025-09-04 16:39:10,1450553
2025-09-04 16:39:10,1450774
2025-09-04 16:39:10,1450846
2025-09-04 16:39:10,1450978
2025-09-04 16:39:10,1451208
2025-09-04 16:39:10,1451295
2025-09-04 16:39:10,1451513
2025-09-04 16:39:10,1451608
2025-09-04 16:39:10,1451813
2025-09-04 16:39:10,1451840
2025-09-04 16:39:10,1451985
2025-09-04 16:39:10,1451999
2025-09-04 16:39:10,1452130
2025-09-04 16:39:10,1452196
2025-09-04 16:39:10,1452301
2025-09-04 16:39:10,1452357
2025-09-04 16:39:10,1452534
2025-09-04 16:39:10,1452531
2025-09-04 16:39:10,1452513
2025-09-04 16:39:10,1452606
2025-09-04 16:39:10,1452711
2025-09-04 16:39:10,1452845
2025-09-04 16:39:10,1452921
2025-09-04 16:39:10,1452933
2025-09-04 16:39:10,1452980
2025-09-04 16:39:10,1453133
2025-09-04 16:39:10,1453239
2025-09-04 16:39:10,1453453
2025-09-04 16:39:10,1453567
2025-09-04 16:39:10,1453484
2025-09-04 16:39:10,1453429
2025-09-04 16:39:10,1453043
2025-09-04 16:39:10,1452257
2025-09-04 16:39:10,1451461
2025-09-04 16:39:10,1450621
2025-09-04 16:39:10,1449863
2025-09-04 16:39:10,1449202
2025-09-04 16:39:10,1448686
2025-09-04 16:39:10,1448019
2025-09-04 16:39:10,1447616
2025-09-04 16:39:10,1447181
2025-09-04 16:39:10,1446861
2025-09-04 16:39:10,1446555
2025-09-04 16:39:10,1446321
2025-09-04 16:39:10,1446187
2025-09-04 16:39:10,1446042
2025-09-04 16:39:10,1446068
2025-09-04 16:39:10,1446016
2025-09-04 16:39:10,1445853
2025-09-04 16:39:10,1445810
2025-09-04 16:39:10,1445763
2025-09-04 16:39:10,1445693
2025-09-04 16:39:10,1445683
2025-09-04 16:39:11,1445690
2025-09-04 16:39:11,1445706
2025-09-04 16:39:11,1445826
2025-09-04 16:39:11,1445897
2025-09-04 16:39:11,1446056
2025-09-04 16:39:11,1446025
2025-09-04 16:39:11,1446020
2025-09-04 16:39:11,1446004
2025-09-04 16:39:11,1446035
2025-09-04 16:39:11,1446037
2025-09-04 16:39:11,1445944
2025-09-04 16:39:11,1445973
2025-09-04 16:39:11,1445895
2025-09-04 16:39:11,1445909
2025-09-04 16:39:11,1445874
2025-09-04 16:39:11,1445828
2025-09-04 16:39:11,1445947
2025-09-04 16:39:11,1445884
2025-09-04 16:39:11,1445981
2025-09-04 16:39:11,1446041
2025-09-04 16:39:11,1446151
2025-09-04 16:39:11,1446319
2025-09-04 16:39:11,1446334
2025-09-04 16:39:11,1446388
2025-09-04 16:39:11,1446682
2025-09-04 16:39:11,1446758
2025-09-04 16:39:11,1446893
2025-09-04 16:39:11,1447082
2025-09-04 16:39:11,1447196
2025-09-04 16:39:11,1447274
2025-09-04 16:39:11,1447302
2025-09-04 16:39:11,1447429
2025-09-04 16:39:11,1447497
2025-09-04 16:39:11,1447606
2025-09-04 16:39:11,1447739
2025-09-04 16:39:11,1447790
2025-09-04 16:39:11,1447892
2025-09-04 16:39:11,1447961
2025-09-04 16:39:11,1447984
2025-09-04 16:39:11,1448290
2025-09-04 16:39:11,1448330
2025-09-04 16:39:11,1448468
2025-09-04 16:39:11,1448486
2025-09-04 16:39:11,1448703
2025-09-04 16:39:11,1448747
2025-09-04 16:39:11,1448951
2025-09-04 16:39:11,1449052
2025-09-04 16:39:11,1449254
2025-09-04 16:39:11,1449280
2025-09-04 16:39:11,1449534
2025-09-04 16:39:11,1449702
2025-09-04 16:39:11,1449808
2025-09-04 16:39:11,1449946
2025-09-04 16:39:11,1450171
2025-09-04 16:39:11,1450348
2025-09-04 16:39:11,1450501
2025-09-04 16:39:11,1450696
2025-09-04 16:39:11,1450780
2025-09-04 16:39:11,1450947
2025-09-04 16:39:11,1450736
2025-09-04 16:39:11,1450356
2025-09-04 16:39:11,1449621
2025-09-04 16:39:11,1448770
2025-09-04 16:39:11,1447960
2025-09-04 16:39:11,1447180
2025-09-04 16:39:11,1446620
2025-09-04 16:39:11,1445927
2025-09-04 16:39:11,1445379
2025-09-04 16:39:11,1445080
2025-09-04 16:39:11,1444643
2025-09-04 16:39:11,1444331
2025-09-04 16:39:11,1444056
2025-09-04 16:39:11,1443990
2025-09-04 16:39:11,1443826
2025-09-04 16:39:11,1443819
2025-09-04 16:39:11,1443652
2025-09-04 16:39:11,1443747
2025-09-04 16:39:11,1443775
2025-09-04 16:39:11,1443738
2025-09-04 16:39:11,1443728
2025-09-04 16:39:11,1443974
2025-09-04 16:39:11,1444040
2025-09-04 16:39:11,1444258
2025-09-04 16:39:11,1444375
2025-09-04 16:39:11,1444547
2025-09-04 16:39:11,1444785
2025-09-04 16:39:11,1444926
2025-09-04 16:39:11,1444895
2025-09-04 16:39:11,1445016
2025-09-04 16:39:11,1444945
2025-09-04 16:39:11,1444895
2025-09-04 16:39:11,1444851
2025-09-04 16:39:11,1444758
2025-09-04 16:39:11,1444760
2025-09-04 16:39:11,1444622
2025-09-04 16:39:11,1444526
2025-09-04 16:39:11,1444493
2025-09-04 16:39:11,1444567
2025-09-04 16:39:11,1444434
2025-09-04 16:39:11,1444432
2025-09-04 16:39:12,1444510
2025-09-04 16:39:12,1444515
2025-09-04 16:39:12,1444566
2025-09-04 16:39:12,1444674
2025-09-04 16:39:12,1444693
2025-09-04 16:39:12,1444841
2025-09-04 16:39:12,1444984
2025-09-04 16:39:12,1445039
2025-09-04 16:39:12,1445163
2025-09-04 16:39:12,1445378
2025-09-04 16:39:12,1445459
2025-09-04 16:39:12,1445509
2025-09-04 16:39:12,1445742
2025-09-04 16:39:12,1445783
2025-09-04 16:39:12,1446020
2025-09-04 16:39:12,1446156
2025-09-04 16:39:12,1446171
2025-09-04 16:39:12,1446397
2025-09-04 16:39:12,1446464
2025-09-04 16:39:12,1446754
2025-09-04 16:39:12,1446729
2025-09-04 16:39:12,1446895
2025-09-04 16:39:12,1446983
2025-09-04 16:39:12,1447125
2025-09-04 16:39:12,1447226
2025-09-04 16:39:12,1447374
2025-09-04 16:39:12,1447379
2025-09-04 16:39:12,1447566
2025-09-04 16:39:12,1447690
2025-09-04 16:39:12,1447738
2025-09-04 16:39:12,1447741
2025-09-04 16:39:12,1447869
2025-09-04 16:39:12,1447919
2025-09-04 16:39:12,1448051
2025-09-04 16:39:12,1447935
2025-09-04 16:39:12,1447549
2025-09-04 16:39:12,1446865
2025-09-04 16:39:12,1446043
2025-09-04 16:39:12,1445147
2025-09-04 16:39:12,1444338
2025-09-04 16:39:12,1443627
2025-09-04 16:39:12,1443021
2025-09-04 16:39:12,1442379
2025-09-04 16:39:12,1441893
2025-09-04 16:39:12,1441402
2025-09-04 16:39:12,1441094
2025-09-04 16:39:12,1440780
2025-09-04 16:39:12,1440578
2025-09-04 16:39:12,1440409
2025-09-04 16:39:12,1440275
2025-09-04 16:39:12,1440269
2025-09-04 16:39:12,1440192
2025-09-04 16:39:12,1440230
2025-09-04 16:39:12,1440276
2025-09-04 16:39:12,1440171
2025-09-04 16:39:12,1440142
2025-09-04 16:39:12,1440265
2025-09-04 16:39:12,1440395
2025-09-04 16:39:12,1440493
2025-09-04 16:39:12,1440493
2025-09-04 16:39:12,1440483
2025-09-04 16:39:12,1440667
2025-09-04 16:39:12,1440703
2025-09-04 16:39:12,1440665
2025-09-04 16:39:12,1440672
2025-09-04 16:39:12,1440686
2025-09-04 16:39:12,1440600
2025-09-04 16:39:12,1440621
2025-09-04 16:39:12,1440528
2025-09-04 16:39:12,1440542
2025-09-04 16:39:12,1440373
2025-09-04 16:39:12,1440186
2025-09-04 16:39:12,1440260
2025-09-04 16:39:12,1440249
2025-09-04 16:39:12,1440177
2025-09-04 16:39:12,1440173
2025-09-04 16:39:12,1440183
2025-09-04 16:39:12,1440311
2025-09-04 16:39:12,1440389
2025-09-04 16:39:12,1440447
2025-09-04 16:39:12,1440621
2025-09-04 16:39:12,1440672
2025-09-04 16:39:12,1440814
2025-09-04 16:39:12,1440814
2025-09-04 16:39:12,1440962
2025-09-04 16:39:12,1441108
2025-09-04 16:39:12,1441250
2025-09-04 16:39:12,1441469
2025-09-04 16:39:12,1441412
2025-09-04 16:39:12,1441660
2025-09-04 16:39:12,1441711
2025-09-04 16:39:12,1441863
2025-09-04 16:39:12,1441920
2025-09-04 16:39:12,1442046
2025-09-04 16:39:12,1442204
2025-09-04 16:39:12,1442304
2025-09-04 16:39:12,1442439
2025-09-04 16:39:12,1442441
2025-09-04 16:39:12,1442588
2025-09-04 16:39:12,1442679
2025-09-04 16:39:12,1442819
2025-09-04 16:39:12,1442967
2025-09-04 16:39:12,1443017
2025-09-04 16:39:13,1443155
2025-09-04 16:39:13,1443276
2025-09-04 16:39:13,1443322
2025-09-04 16:39:13,1443475
2025-09-04 16:39:13,1443656
2025-09-04 16:39:13,1443657
2025-09-04 16:39:13,1443736
2025-09-04 16:39:13,1443948
2025-09-04 16:39:13,1443983
2025-09-04 16:39:13,1444150
2025-09-04 16:39:13,1444349
2025-09-04 16:39:13,1444502
2025-09-04 16:39:13,1444632
2025-09-04 16:39:13,1444708
2025-09-04 16:39:13,1444751
2025-09-04 16:39:13,1444453
2025-09-04 16:39:13,1443858
2025-09-04 16:39:13,1442913
2025-09-04 16:39:13,1442068
2025-09-04 16:39:13,1441004
2025-09-04 16:39:13,1440278
2025-09-04 16:39:13,1439467
2025-09-04 16:39:13,1438813
2025-09-04 16:39:13,1438127
2025-09-04 16:39:13,1437615
2025-09-04 16:39:13,1437014
2025-09-04 16:39:13,1436752
2025-09-04 16:39:13,1436399
2025-09-04 16:39:13,1436121
2025-09-04 16:39:13,1435943
2025-09-04 16:39:13,1435818
2025-09-04 16:39:13,1435581
2025-09-04 16:39:13,1435506
2025-09-04 16:39:13,1435386
2025-09-04 16:39:13,1435357
2025-09-04 16:39:13,1435217
2025-09-04 16:39:13,1435174
2025-09-04 16:39:13,1435051
2025-09-04 16:39:13,1435100
2025-09-04 16:39:13,1435114
2025-09-04 16:39:13,1435225
2025-09-04 16:39:13,1435223
2025-09-04 16:39:13,1435192
2025-09-04 16:39:13,1435350
2025-09-04 16:39:13,1435388
2025-09-04 16:39:13,1435496
2025-09-04 16:39:13,1435428
2025-09-04 16:39:13,1435407
2025-09-04 16:39:13,1435335
2025-09-04 16:39:13,1435358
2025-09-04 16:39:13,1435394
2025-09-04 16:39:13,1435267
2025-09-04 16:39:13,1435293
2025-09-04 16:39:13,1435246
2025-09-04 16:39:13,1435211
2025-09-04 16:39:13,1435240
2025-09-04 16:39:13,1435230
2025-09-04 16:39:13,1435345
2025-09-04 16:39:13,1435432
2025-09-04 16:39:13,1435500
2025-09-04 16:39:13,1435583
2025-09-04 16:39:13,1435732
2025-09-04 16:39:13,1435861
2025-09-04 16:39:13,1436084
2025-09-04 16:39:13,1436244
2025-09-04 16:39:13,1436325
2025-09-04 16:39:13,1436489
2025-09-04 16:39:13,1436658
2025-09-04 16:39:13,1436791
2025-09-04 16:39:13,1436974
2025-09-04 16:39:13,1437041
2025-09-04 16:39:13,1437169
2025-09-04 16:39:13,1437260
2025-09-04 16:39:13,1437349
2025-09-04 16:39:13,1437348
2025-09-04 16:39:13,1437619
2025-09-04 16:39:13,1437654
2025-09-04 16:39:13,1437772
2025-09-04 16:39:13,1437816
2025-09-04 16:39:13,1437931
2025-09-04 16:39:13,1438065
2025-09-04 16:39:13,1438202
2025-09-04 16:39:13,1438235
2025-09-04 16:39:13,1438336
2025-09-04 16:39:13,1438498
2025-09-04 16:39:13,1438561
2025-09-04 16:39:13,1438776
2025-09-04 16:39:13,1438781
2025-09-04 16:39:13,1438990
2025-09-04 16:39:13,1439106
2025-09-04 16:39:13,1439261
2025-09-04 16:39:13,1439472
2025-09-04 16:39:13,1439523
2025-09-04 16:39:13,1439566
2025-09-04 16:39:13,1439695
2025-09-04 16:39:13,1439788
2025-09-04 16:39:13,1439980
2025-09-04 16:39:13,1440101
2025-09-04 16:39:13,1440162
2025-09-04 16:39:13,1440311
2025-09-04 16:39:14,1439991
2025-09-04 16:39:14,1439461
2025-09-04 16:39:14,1438580
2025-09-04 16:39:14,1437558
2025-09-04 16:39:14,1436680
2025-09-04 16:39:14,1435888
2025-09-04 16:39:14,1435136
2025-09-04 16:39:14,1434409
2025-09-04 16:39:14,1433916
2025-09-04 16:39:14,1433338
2025-09-04 16:39:14,1432849
2025-09-04 16:39:14,1432532
2025-09-04 16:39:14,1432152
2025-09-04 16:39:14,1432002
2025-09-04 16:39:14,1431733
2025-09-04 16:39:14,1431599
2025-09-04 16:39:14,1431497
2025-09-04 16:39:14,1431452
2025-09-04 16:39:14,1431301
2025-09-04 16:39:14,1431128
2025-09-04 16:39:14,1431182
2025-09-04 16:39:14,1431124
2025-09-04 16:39:14,1431185
2025-09-04 16:39:14,1431342
2025-09-04 16:39:14,1431389
2025-09-04 16:39:14,1431656
2025-09-04 16:39:14,1431834
2025-09-04 16:39:14,1431970
2025-09-04 16:39:14,1432108
2025-09-04 16:39:14,1432177
2025-09-04 16:39:14,1432211
2025-09-04 16:39:14,1432214
2025-09-04 16:39:14,1432238
2025-09-04 16:39:14,1432232
2025-09-04 16:39:14,1432172
2025-09-04 16:39:14,1432089
2025-09-04 16:39:14,1431976
2025-09-04 16:39:14,1431938
2025-09-04 16:39:14,1431812
2025-09-04 16:39:14,1431841
2025-09-04 16:39:14,1431819
2025-09-04 16:39:14,1431852
2025-09-04 16:39:14,1431756
2025-09-04 16:39:14,1431887
2025-09-04 16:39:14,1431873
2025-09-04 16:39:14,1431964
2025-09-04 16:39:14,1432015
2025-09-04 16:39:14,1432145
2025-09-04 16:39:14,1432084
2025-09-04 16:39:14,1432268
2025-09-04 16:39:14,1432401
2025-09-04 16:39:14,1432466
2025-09-04 16:39:14,1432664
2025-09-04 16:39:14,1432723
2025-09-04 16:39:14,1432774
2025-09-04 16:39:14,1432991
2025-09-04 16:39:14,1433081
2025-09-04 16:39:14,1433109
2025-09-04 16:39:14,1433264
2025-09-04 16:39:14,1433266
2025-09-04 16:39:14,1433422
2025-09-04 16:39:14,1433463
2025-09-04 16:39:14,1433631
2025-09-04 16:39:14,1433762
2025-09-04 16:39:14,1433755
2025-09-04 16:39:14,1433936
2025-09-04 16:39:14,1434013
2025-09-04 16:39:14,1434167
2025-09-04 16:39:14,1434223
2025-09-04 16:39:14,1434253
2025-09-04 16:39:14,1434442
2025-09-04 16:39:14,1434580
2025-09-04 16:39:14,1434633
2025-09-04 16:39:14,1434762
2025-09-04 16:39:14,1434931
2025-09-04 16:39:14,1435182
2025-09-04 16:39:14,1435333
2025-09-04 16:39:14,1435522
2025-09-04 16:39:14,1435630
2025-09-04 16:39:14,1435931
2025-09-04 16:39:14,1436076
2025-09-04 16:39:14,1436330
2025-09-04 16:39:14,1436501
2025-09-04 16:39:14,1436684
2025-09-04 16:39:14,1436718
2025-09-04 16:39:14,1436552
2025-09-04 16:39:14,1435957
2025-09-04 16:39:14,1435144
2025-09-04 16:39:14,1434252
2025-09-04 16:39:14,1433429
2025-09-04 16:39:14,1432608
2025-09-04 16:39:14,1431887
2025-09-04 16:39:14,1431318
2025-09-04 16:39:14,1430680
2025-09-04 16:39:14,1430138
2025-09-04 16:39:14,1429770
2025-09-04 16:39:14,1429360
2025-09-04 16:39:14,1429150
2025-09-04 16:39:14,1429098
2025-09-04 16:39:14,1428942
2025-09-04 16:39:15,1428824
2025-09-04 16:39:15,1428932
2025-09-04 16:39:15,1428896
2025-09-04 16:39:15,1428971
2025-09-04 16:39:15,1428972
2025-09-04 16:39:15,1429153
2025-09-04 16:39:15,1429211
2025-09-04 16:39:15,1429241
2025-09-04 16:39:15,1429416
2025-09-04 16:39:15,1429553
2025-09-04 16:39:15,1429726
2025-09-04 16:39:15,1429890
2025-09-04 16:39:15,1429909
2025-09-04 16:39:15,1430047
2025-09-04 16:39:15,1430185
2025-09-04 16:39:15,1430175
2025-09-04 16:39:15,1430137
2025-09-04 16:39:15,1430111
2025-09-04 16:39:15,1430105
2025-09-04 16:39:15,1430052
2025-09-04 16:39:15,1430019
2025-09-04 16:39:15,1429828
2025-09-04 16:39:15,1429873
2025-09-04 16:39:15,1429928
2025-09-04 16:39:15,1429966
2025-09-04 16:39:15,1429933
2025-09-04 16:39:15,1430018
2025-09-04 16:39:15,1430200
2025-09-04 16:39:15,1430286
2025-09-04 16:39:15,1430465
2025-09-04 16:39:15,1430560
2025-09-04 16:39:15,1430740
2025-09-04 16:39:15,1430982
2025-09-04 16:39:15,1431070
2025-09-04 16:39:15,1431291
2025-09-04 16:39:15,1431433
2025-09-04 16:39:15,1431664
2025-09-04 16:39:15,1431848
2025-09-04 16:39:15,1431944
2025-09-04 16:39:15,1432156
2025-09-04 16:39:15,1432263
2025-09-04 16:39:15,1432523
2025-09-04 16:39:15,1432762
2025-09-04 16:39:15,1432811
2025-09-04 16:39:15,1432945
2025-09-04 16:39:15,1433051
2025-09-04 16:39:15,1433236
2025-09-04 16:39:15,1433425
2025-09-04 16:39:15,1433553
2025-09-04 16:39:15,1433660
2025-09-04 16:39:15,1433691
2025-09-04 16:39:15,1433866
2025-09-04 16:39:15,1433920
2025-09-04 16:39:15,1433966
2025-09-04 16:39:15,1434121
2025-09-04 16:39:15,1434267
2025-09-04 16:39:15,1434290
2025-09-04 16:39:15,1434471
2025-09-04 16:39:15,1434528
2025-09-04 16:39:15,1434629
2025-09-04 16:39:15,1434661
2025-09-04 16:39:15,1434835
2025-09-04 16:39:15,1434932
2025-09-04 16:39:15,1435071
2025-09-04 16:39:15,1435153
2025-09-04 16:39:15,1435017
2025-09-04 16:39:15,1434541
2025-09-04 16:39:15,1433852
2025-09-04 16:39:15,1433016
2025-09-04 16:39:15,1432143
2025-09-04 16:39:15,1431412
2025-09-04 16:39:15,1430654
2025-09-04 16:39:15,1430075
2025-09-04 16:39:15,1429512
2025-09-04 16:39:15,1429014
2025-09-04 16:39:15,1428595
2025-09-04 16:39:15,1428219
2025-09-04 16:39:15,1427972
2025-09-04 16:39:15,1427865
2025-09-04 16:39:15,1427647
2025-09-04 16:39:15,1427552
2025-09-04 16:39:15,1427536
2025-09-04 16:39:15,1427462
2025-09-04 16:39:15,1427436
2025-09-04 16:39:15,1427441
2025-09-04 16:39:15,1427490
2025-09-04 16:39:15,1427640
2025-09-04 16:39:15,1427729
2025-09-04 16:39:15,1427922
2025-09-04 16:39:15,1427959
2025-09-04 16:39:15,1428157
2025-09-04 16:39:15,1428240
2025-09-04 16:39:15,1428252
2025-09-04 16:39:15,1428177
2025-09-04 16:39:15,1428234
2025-09-04 16:39:15,1428280
2025-09-04 16:39:15,1428124
2025-09-04 16:39:15,1428077
2025-09-04 16:39:15,1427845
2025-09-04 16:39:15,1427824
2025-09-04 16:39:16,1427757
2025-09-04 16:39:16,1427642
2025-09-04 16:39:16,1427653
2025-09-04 16:39:16,1427520
2025-09-04 16:39:16,1427594
2025-09-04 16:39:16,1427698
2025-09-04 16:39:16,1427644
2025-09-04 16:39:16,1427674
2025-09-04 16:39:16,1427783
2025-09-04 16:39:16,1427976
2025-09-04 16:39:16,1428049
2025-09-04 16:39:16,1428275
2025-09-04 16:39:16,1428466
2025-09-04 16:39:16,1428555
2025-09-04 16:39:16,1428808
2025-09-04 16:39:16,1428916
2025-09-04 16:39:16,1429219
2025-09-04 16:39:16,1429401
2025-09-04 16:39:16,1429523
2025-09-04 16:39:16,1429786
2025-09-04 16:39:16,1429895
2025-09-04 16:39:16,1429929
2025-09-04 16:39:16,1430072
2025-09-04 16:39:16,1430297
2025-09-04 16:39:16,1430329
2025-09-04 16:39:16,1430515
2025-09-04 16:39:16,1430662
2025-09-04 16:39:16,1430683
2025-09-04 16:39:16,1430856
2025-09-04 16:39:16,1430978
2025-09-04 16:39:16,1431108
2025-09-04 16:39:16,1431127
2025-09-04 16:39:16,1431279
2025-09-04 16:39:16,1431322
2025-09-04 16:39:16,1431445
2025-09-04 16:39:16,1431619
2025-09-04 16:39:16,1431714
2025-09-04 16:39:16,1431865
2025-09-04 16:39:16,1432029
2025-09-04 16:39:16,1432216
2025-09-04 16:39:16,1432301
2025-09-04 16:39:16,1432511
2025-09-04 16:39:16,1432680
2025-09-04 16:39:16,1432823
2025-09-04 16:39:16,1432903
2025-09-04 16:39:16,1433005
2025-09-04 16:39:16,1432844
2025-09-04 16:39:16,1432358
2025-09-04 16:39:16,1431533
2025-09-04 16:39:16,1430604
2025-09-04 16:39:16,1429608
2025-09-04 16:39:16,1428737
2025-09-04 16:39:16,1427991
2025-09-04 16:39:16,1427240
2025-09-04 16:39:16,1426612
2025-09-04 16:39:16,1425982
2025-09-04 16:39:16,1425442
2025-09-04 16:39:16,1425120
2025-09-04 16:39:16,1424829
2025-09-04 16:39:16,1424675
2025-09-04 16:39:16,1424395
2025-09-04 16:39:16,1424515
2025-09-04 16:39:16,1424275
2025-09-04 16:39:16,1424396
2025-09-04 16:39:16,1424257
2025-09-04 16:39:16,1424241
2025-09-04 16:39:16,1424109
2025-09-04 16:39:16,1424199
2025-09-04 16:39:16,1424134
2025-09-04 16:39:16,1424193
2025-09-04 16:39:16,1424253
2025-09-04 16:39:16,1424337
2025-09-04 16:39:16,1424462
2025-09-04 16:39:16,1424561
2025-09-04 16:39:16,1424563
2025-09-04 16:39:16,1424599
2025-09-04 16:39:16,1424698
2025-09-04 16:39:16,1424604
2025-09-04 16:39:16,1424572
2025-09-04 16:39:16,1424611
2025-09-04 16:39:16,1424441
2025-09-04 16:39:16,1424459
2025-09-04 16:39:16,1424379
2025-09-04 16:39:16,1424316
2025-09-04 16:39:16,1424225
2025-09-04 16:39:16,1424294
2025-09-04 16:39:16,1424321
2025-09-04 16:39:16,1424239
2025-09-04 16:39:16,1424360
2025-09-04 16:39:16,1424462
2025-09-04 16:39:16,1424571
2025-09-04 16:39:16,1424721
2025-09-04 16:39:16,1424843
2025-09-04 16:39:16,1425014
2025-09-04 16:39:16,1425259
2025-09-04 16:39:16,1425358
2025-09-04 16:39:16,1425559
2025-09-04 16:39:16,1425729
2025-09-04 16:39:16,1425873
2025-09-04 16:39:16,1426107
2025-09-04 16:39:17,1426323
2025-09-04 16:39:17,1426497
2025-09-04 16:39:17,1426736
2025-09-04 16:39:17,1426921
2025-09-04 16:39:17,1427082
2025-09-04 16:39:17,1427317
2025-09-04 16:39:17,1427424
2025-09-04 16:39:17,1427611
2025-09-04 16:39:17,1427754
2025-09-04 16:39:17,1427840
2025-09-04 16:39:17,1427954
2025-09-04 16:39:17,1428091
2025-09-04 16:39:17,1428184
2025-09-04 16:39:17,1428260
2025-09-04 16:39:17,1428355
2025-09-04 16:39:17,1428498
2025-09-04 16:39:17,1428515
2025-09-04 16:39:17,1428701
2025-09-04 16:39:17,1428873
2025-09-04 16:39:17,1428864
2025-09-04 16:39:17,1429113
2025-09-04 16:39:17,1429214
2025-09-04 16:39:17,1429352
2025-09-04 16:39:17,1429450
2025-09-04 16:39:17,1429646
2025-09-04 16:39:17,1429749
2025-09-04 16:39:17,1429710
2025-09-04 16:39:17,1429225
2025-09-04 16:39:17,1428412
2025-09-04 16:39:17,1427569
2025-09-04 16:39:17,1426669
2025-09-04 16:39:17,1425914
2025-09-04 16:39:17,1425144
2025-09-04 16:39:17,1424477
2025-09-04 16:39:17,1423920
2025-09-04 16:39:17,1423446
2025-09-04 16:39:17,1422957
2025-09-04 16:39:17,1422734
2025-09-04 16:39:17,1422420
2025-09-04 16:39:17,1422230
2025-09-04 16:39:17,1422148
2025-09-04 16:39:17,1422121
2025-09-04 16:39:17,1422006
2025-09-04 16:39:17,1421970
2025-09-04 16:39:17,1422072
2025-09-04 16:39:17,1421963
2025-09-04 16:39:17,1421998
2025-09-04 16:39:17,1421944
2025-09-04 16:39:17,1421933
2025-09-04 16:39:17,1422148
2025-09-04 16:39:17,1422205
2025-09-04 16:39:17,1422313
2025-09-04 16:39:17,1422402
2025-09-04 16:39:17,1422492
2025-09-04 16:39:17,1422623
2025-09-04 16:39:17,1422669
2025-09-04 16:39:17,1422773
2025-09-04 16:39:17,1422767
2025-09-04 16:39:17,1422749
2025-09-04 16:39:17,1422728
2025-09-04 16:39:17,1422636
2025-09-04 16:39:17,1422539
2025-09-04 16:39:17,1422547
2025-09-04 16:39:17,1422475
2025-09-04 16:39:17,1422521
2025-09-04 16:39:17,1422561
2025-09-04 16:39:17,1422553
2025-09-04 16:39:17,1422607
2025-09-04 16:39:17,1422674
2025-09-04 16:39:17,1422871
2025-09-04 16:39:17,1422882
2025-09-04 16:39:17,1423013
2025-09-04 16:39:17,1423154
2025-09-04 16:39:17,1423266
2025-09-04 16:39:17,1423429
2025-09-04 16:39:17,1423571
2025-09-04 16:39:17,1423765
2025-09-04 16:39:17,1423832
2025-09-04 16:39:17,1423990
2025-09-04 16:39:17,1424124
2025-09-04 16:39:17,1424253
2025-09-04 16:39:17,1424383
2025-09-04 16:39:17,1424568
2025-09-04 16:39:17,1424689
2025-09-04 16:39:17,1424859
2025-09-04 16:39:17,1424983
2025-09-04 16:39:17,1425122
2025-09-04 16:39:17,1425307
2025-09-04 16:39:17,1425456
2025-09-04 16:39:17,1425553
2025-09-04 16:39:17,1425779
2025-09-04 16:39:17,1425891
2025-09-04 16:39:17,1426051
2025-09-04 16:39:17,1426247
2025-09-04 16:39:17,1426378
2025-09-04 16:39:17,1426622
2025-09-04 16:39:17,1426702
2025-09-04 16:39:17,1426921
2025-09-04 16:39:17,1427129
2025-09-04 16:39:17,1427302
2025-09-04 16:39:18,1427489
2025-09-04 16:39:18,1427639
2025-09-04 16:39:18,1427743
2025-09-04 16:39:18,1427896
2025-09-04 16:39:18,1428044
2025-09-04 16:39:18,1428100
2025-09-04 16:39:18,1427999
2025-09-04 16:39:18,1427511
2025-09-04 16:39:18,1426853
2025-09-04 16:39:18,1425816
2025-09-04 16:39:18,1424846
2025-09-04 16:39:18,1423972
2025-09-04 16:39:18,1423145
2025-09-04 16:39:18,1422342
2025-09-04 16:39:18,1421805
2025-09-04 16:39:18,1421112
2025-09-04 16:39:18,1420735
2025-09-04 16:39:18,1420229
2025-09-04 16:39:18,1419978
2025-09-04 16:39:18,1419720
2025-09-04 16:39:18,1419614
2025-09-04 16:39:18,1419479
2025-09-04 16:39:18,1419394
2025-09-04 16:39:18,1419322
2025-09-04 16:39:18,1419310
2025-09-04 16:39:18,1419249
2025-09-04 16:39:18,1419204
2025-09-04 16:39:18,1419183
2025-09-04 16:39:18,1419152
2025-09-04 16:39:18,1419254
2025-09-04 16:39:18,1419348
2025-09-04 16:39:18,1419383
2025-09-04 16:39:18,1419519
2025-09-04 16:39:18,1419543
2025-09-04 16:39:18,1419658
2025-09-04 16:39:18,1419623
2025-09-04 16:39:18,1419679
2025-09-04 16:39:18,1419603
2025-09-04 16:39:18,1419683
2025-09-04 16:39:18,1419651
2025-09-04 16:39:18,1419648
2025-09-04 16:39:18,1419545
2025-09-04 16:39:18,1419500
2025-09-04 16:39:18,1419397
2025-09-04 16:39:18,1419380
2025-09-04 16:39:18,1419470
2025-09-04 16:39:18,1419423
2025-09-04 16:39:18,1419453
2025-09-04 16:39:18,1419528
2025-09-04 16:39:18,1419586
2025-09-04 16:39:18,1419695
2025-09-04 16:39:18,1419854
2025-09-04 16:39:18,1420002
2025-09-04 16:39:18,1420142
2025-09-04 16:39:18,1420234
2025-09-04 16:39:18,1420415
2025-09-04 16:39:18,1420629
2025-09-04 16:39:18,1420672
2025-09-04 16:39:18,1420786
2025-09-04 16:39:18,1421084
2025-09-04 16:39:18,1421199
2025-09-04 16:39:18,1421357
2025-09-04 16:39:18,1421466
2025-09-04 16:39:18,1421653
2025-09-04 16:39:18,1421687
2025-09-04 16:39:18,1421923
2025-09-04 16:39:18,1422033
2025-09-04 16:39:18,1422115
2025-09-04 16:39:18,1422261
2025-09-04 16:39:18,1422346
2025-09-04 16:39:18,1422451
2025-09-04 16:39:18,1422647
2025-09-04 16:39:18,1422718
2025-09-04 16:39:18,1422892
2025-09-04 16:39:18,1422948
2025-09-04 16:39:18,1423079
2025-09-04 16:39:18,1423237
2025-09-04 16:39:18,1423359
2025-09-04 16:39:18,1423528
2025-09-04 16:39:18,1423691
2025-09-04 16:39:18,1423830
2025-09-04 16:39:18,1423974
2025-09-04 16:39:18,1424121
2025-09-04 16:39:18,1424338
2025-09-04 16:39:18,1424495
2025-09-04 16:39:18,1424697
2025-09-04 16:39:18,1424866
2025-09-04 16:39:18,1424999
2025-09-04 16:39:18,1425115
2025-09-04 16:39:18,1425299
2025-09-04 16:39:18,1425334
2025-09-04 16:39:18,1425120
2025-09-04 16:39:18,1424420
2025-09-04 16:39:18,1423501
2025-09-04 16:39:18,1422523
2025-09-04 16:39:18,1421617
2025-09-04 16:39:18,1420801
2025-09-04 16:39:18,1420008
2025-09-04 16:39:18,1419335
2025-09-04 16:39:18,1418732
2025-09-04 16:39:19,1418172
2025-09-04 16:39:19,1417617
2025-09-04 16:39:19,1417378
2025-09-04 16:39:19,1417083
2025-09-04 16:39:19,1416957
2025-09-04 16:39:19,1416801
2025-09-04 16:39:19,1416696
2025-09-04 16:39:19,1416635
2025-09-04 16:39:19,1416571
2025-09-04 16:39:19,1416564
2025-09-04 16:39:19,1416525
2025-09-04 16:39:19,1416451
2025-09-04 16:39:19,1416373
2025-09-04 16:39:19,1416367
2025-09-04 16:39:19,1416372
2025-09-04 16:39:19,1416564
2025-09-04 16:39:19,1416649
2025-09-04 16:39:19,1416693
2025-09-04 16:39:19,1416706
2025-09-04 16:39:19,1416762
2025-09-04 16:39:19,1416833
2025-09-04 16:39:19,1416850
2025-09-04 16:39:19,1416765
2025-09-04 16:39:19,1416853
2025-09-04 16:39:19,1416720
2025-09-04 16:39:19,1416736
2025-09-04 16:39:19,1416612
2025-09-04 16:39:19,1416745
2025-09-04 16:39:19,1416732
2025-09-04 16:39:19,1416725
2025-09-04 16:39:19,1416694
2025-09-04 16:39:19,1416765
2025-09-04 16:39:19,1416857
2025-09-04 16:39:19,1416933
2025-09-04 16:39:19,1417111
2025-09-04 16:39:19,1417305
2025-09-04 16:39:19,1417523
2025-09-04 16:39:19,1417612
2025-09-04 16:39:19,1417767
2025-09-04 16:39:19,1418013
2025-09-04 16:39:19,1418130
2025-09-04 16:39:19,1418398
2025-09-04 16:39:19,1418604
2025-09-04 16:39:19,1418728
2025-09-04 16:39:19,1418823
2025-09-04 16:39:19,1419060
2025-09-04 16:39:19,1419279
2025-09-04 16:39:19,1419456
2025-09-04 16:39:19,1419549
2025-09-04 16:39:19,1419750
2025-09-04 16:39:19,1419960
2025-09-04 16:39:19,1420081
2025-09-04 16:39:19,1420170
2025-09-04 16:39:19,1420378
2025-09-04 16:39:19,1420491
2025-09-04 16:39:19,1420737
2025-09-04 16:39:19,1420838
2025-09-04 16:39:19,1421004
2025-09-04 16:39:19,1421197
2025-09-04 16:39:19,1421282
2025-09-04 16:39:19,1421483
2025-09-04 16:39:19,1421569
2025-09-04 16:39:19,1421679
2025-09-04 16:39:19,1421938
2025-09-04 16:39:19,1422141
2025-09-04 16:39:19,1422242
2025-09-04 16:39:19,1422430
2025-09-04 16:39:19,1422545
2025-09-04 16:39:19,1422778
2025-09-04 16:39:19,1422939
2025-09-04 16:39:19,1423147
2025-09-04 16:39:19,1423374
2025-09-04 16:39:19,1423560
2025-09-04 16:39:19,1423832
2025-09-04 16:39:19,1423864
2025-09-04 16:39:19,1424101
2025-09-04 16:39:19,1424101
2025-09-04 16:39:19,1424244
2025-09-04 16:39:19,1424211
2025-09-04 16:39:19,1423813
2025-09-04 16:39:19,1423004
2025-09-04 16:39:19,1422179
2025-09-04 16:39:19,1421209
2025-09-04 16:39:19,1420316
2025-09-04 16:39:19,1419680
2025-09-04 16:39:19,1419020
2025-09-04 16:39:19,1418377
2025-09-04 16:39:19,1417901
2025-09-04 16:39:19,1417433
2025-09-04 16:39:19,1417158
2025-09-04 16:39:19,1417028
2025-09-04 16:39:19,1416760
2025-09-04 16:39:19,1416788
2025-09-04 16:39:19,1416688
2025-09-04 16:39:19,1416686
2025-09-04 16:39:19,1416605
2025-09-04 16:39:19,1416724
2025-09-04 16:39:19,1416697
2025-09-04 16:39:19,1416697
2025-09-04 16:39:19,1416716
2025-09-04 16:39:19,1416820
2025-09-04 16:39:20,1416843
2025-09-04 16:39:20,1417000
2025-09-04 16:39:20,1417124
2025-09-04 16:39:20,1417184
2025-09-04 16:39:20,1417277
2025-09-04 16:39:20,1417274
2025-09-04 16:39:20,1417338
2025-09-04 16:39:20,1417307
2025-09-04 16:39:20,1417181
2025-09-04 16:39:20,1417173
2025-09-04 16:39:20,1417059
2025-09-04 16:39:20,1417034
2025-09-04 16:39:20,1416979
2025-09-04 16:39:20,1416812
2025-09-04 16:39:20,1416892
2025-09-04 16:39:20,1416901
2025-09-04 16:39:20,1417027
2025-09-04 16:39:20,1417270
2025-09-04 16:39:20,1417489
2025-09-04 16:39:20,1417783
2025-09-04 16:39:20,1418000
2025-09-04 16:39:20,1418121
2025-09-04 16:39:20,1418377
2025-09-04 16:39:20,1418568
2025-09-04 16:39:20,1418813
2025-09-04 16:39:20,1419055
2025-09-04 16:39:20,1419155
2025-09-04 16:39:20,1419326
2025-09-04 16:39:20,1419498
2025-09-04 16:39:20,1419540
2025-09-04 16:39:20,1419682
2025-09-04 16:39:20,1419905
2025-09-04 16:39:20,1419875
2025-09-04 16:39:20,1419965
2025-09-04 16:39:20,1420052
2025-09-04 16:39:20,1420096
2025-09-04 16:39:20,1420241
2025-09-04 16:39:20,1420343
2025-09-04 16:39:20,1420444
2025-09-04 16:39:20,1420424
2025-09-04 16:39:20,1420595
2025-09-04 16:39:20,1421069
2025-09-04 16:39:20,1421600
2025-09-04 16:39:20,1421972
2025-09-04 16:39:20,1422440
2025-09-04 16:39:20,1422757
2025-09-04 16:39:20,1423084
2025-09-04 16:39:20,1423371
2025-09-04 16:39:20,1423641
2025-09-04 16:39:20,1423907
2025-09-04 16:39:20,1424198
2025-09-04 16:39:20,1424381
2025-09-04 16:39:20,1424625
2025-09-04 16:39:20,1424767
2025-09-04 16:39:20,1424863
2025-09-04 16:39:20,1425008
2025-09-04 16:39:20,1425128
2025-09-04 16:39:20,1425266
2025-09-04 16:39:20,1425335
2025-09-04 16:39:20,1425254
2025-09-04 16:39:20,1425248
2025-09-04 16:39:20,1424991
2025-09-04 16:39:20,1424254
2025-09-04 16:39:20,1423285
2025-09-04 16:39:20,1422134
2025-09-04 16:39:20,1421180
2025-09-04 16:39:20,1420254
2025-09-04 16:39:20,1419613
2025-09-04 16:39:20,1418815
2025-09-04 16:39:20,1418198
2025-09-04 16:39:20,1417564
2025-09-04 16:39:20,1417078
2025-09-04 16:39:20,1416720
2025-09-04 16:39:20,1416479
2025-09-04 16:39:20,1416275
2025-09-04 16:39:20,1416080
2025-09-04 16:39:20,1415996
2025-09-04 16:39:20,1416020
2025-09-04 16:39:20,1415901
2025-09-04 16:39:20,1415843
2025-09-04 16:39:20,1415871
2025-09-04 16:39:20,1415933
2025-09-04 16:39:20,1415804
2025-09-04 16:39:20,1415913
2025-09-04 16:39:20,1415938
2025-09-04 16:39:20,1416005
2025-09-04 16:39:20,1416080
2025-09-04 16:39:20,1416217
2025-09-04 16:39:20,1416290
2025-09-04 16:39:20,1416335
2025-09-04 16:39:20,1416354
2025-09-04 16:39:20,1416330
2025-09-04 16:39:20,1416279
2025-09-04 16:39:20,1416349
2025-09-04 16:39:20,1416215
2025-09-04 16:39:20,1416156
2025-09-04 16:39:20,1416074
2025-09-04 16:39:20,1416057
2025-09-04 16:39:20,1415917
2025-09-04 16:39:20,1416048
2025-09-04 16:39:21,1415939
2025-09-04 16:39:21,1416104
2025-09-04 16:39:21,1416057
2025-09-04 16:39:21,1416141
2025-09-04 16:39:21,1416204
2025-09-04 16:39:21,1416303
2025-09-04 16:39:21,1416464
2025-09-04 16:39:21,1416554
2025-09-04 16:39:21,1416632
2025-09-04 16:39:21,1416887
2025-09-04 16:39:21,1416986
2025-09-04 16:39:21,1417095
2025-09-04 16:39:21,1417305
2025-09-04 16:39:21,1417411
2025-09-04 16:39:21,1417557
2025-09-04 16:39:21,1417758
2025-09-04 16:39:21,1417903
2025-09-04 16:39:21,1418009
2025-09-04 16:39:21,1418210
2025-09-04 16:39:21,1418312
2025-09-04 16:39:21,1418500
2025-09-04 16:39:21,1418583
2025-09-04 16:39:21,1418769
2025-09-04 16:39:21,1418911
2025-09-04 16:39:21,1419014
2025-09-04 16:39:21,1419246
2025-09-04 16:39:21,1419392
2025-09-04 16:39:21,1419453
2025-09-04 16:39:21,1419566
2025-09-04 16:39:21,1419777
2025-09-04 16:39:21,1419992
2025-09-04 16:39:21,1420130
2025-09-04 16:39:21,1420183
2025-09-04 16:39:21,1420295
2025-09-04 16:39:21,1420481
2025-09-04 16:39:21,1420557
2025-09-04 16:39:21,1420730
2025-09-04 16:39:21,1420983
2025-09-04 16:39:21,1421024
2025-09-04 16:39:21,1421347
2025-09-04 16:39:21,1421360
2025-09-04 16:39:21,1421688
2025-09-04 16:39:21,1421914
2025-09-04 16:39:21,1422400
2025-09-04 16:39:21,1423016
2025-09-04 16:39:21,1423640
2025-09-04 16:39:21,1424288
2025-09-04 16:39:21,1424782
2025-09-04 16:39:21,1425149
2025-09-04 16:39:21,1425409
2025-09-04 16:39:21,1425293
2025-09-04 16:39:21,1424759
2025-09-04 16:39:21,1423989
2025-09-04 16:39:21,1422966
2025-09-04 16:39:21,1422113
2025-09-04 16:39:21,1421340
2025-09-04 16:39:21,1420689
2025-09-04 16:39:21,1420016
2025-09-04 16:39:21,1419389
2025-09-04 16:39:21,1418851
2025-09-04 16:39:21,1418436
2025-09-04 16:39:21,1418125
2025-09-04 16:39:21,1417831
2025-09-04 16:39:21,1417623
2025-09-04 16:39:21,1417449
2025-09-04 16:39:21,1417373
2025-09-04 16:39:21,1417325
2025-09-04 16:39:21,1417238
2025-09-04 16:39:21,1417171
2025-09-04 16:39:21,1417103
2025-09-04 16:39:21,1417111
2025-09-04 16:39:21,1417062
2025-09-04 16:39:21,1416995
2025-09-04 16:39:21,1417083
2025-09-04 16:39:21,1417070
2025-09-04 16:39:21,1417285
2025-09-04 16:39:21,1417291
2025-09-04 16:39:21,1417512
2025-09-04 16:39:21,1417474
2025-09-04 16:39:21,1417443
2025-09-04 16:39:21,1417451
2025-09-04 16:39:21,1417408
2025-09-04 16:39:21,1417397
2025-09-04 16:39:21,1417285
2025-09-04 16:39:21,1417287
2025-09-04 16:39:21,1417202
2025-09-04 16:39:21,1417121
2025-09-04 16:39:21,1417155
2025-09-04 16:39:21,1417107
2025-09-04 16:39:21,1417201
2025-09-04 16:39:21,1417155
2025-09-04 16:39:21,1417338
2025-09-04 16:39:21,1417435
2025-09-04 16:39:21,1417602
2025-09-04 16:39:21,1417744
2025-09-04 16:39:21,1417896
2025-09-04 16:39:21,1418130
2025-09-04 16:39:21,1418325
2025-09-04 16:39:21,1418559
2025-09-04 16:39:21,1418691
2025-09-04 16:39:22,1418944
2025-09-04 16:39:22,1419159
2025-09-04 16:39:22,1419342
2025-09-04 16:39:22,1419469
2025-09-04 16:39:22,1419619
2025-09-04 16:39:22,1419874
2025-09-04 16:39:22,1419995
2025-09-04 16:39:22,1420284
2025-09-04 16:39:22,1420327
2025-09-04 16:39:22,1420502
2025-09-04 16:39:22,1420591
2025-09-04 16:39:22,1420778
2025-09-04 16:39:22,1420933
2025-09-04 16:39:22,1421075
2025-09-04 16:39:22,1421172
2025-09-04 16:39:22,1421398
2025-09-04 16:39:22,1421447
2025-09-04 16:39:22,1421610
2025-09-04 16:39:22,1421817
2025-09-04 16:39:22,1421888
2025-09-04 16:39:22,1422091
2025-09-04 16:39:22,1422245
2025-09-04 16:39:22,1422437
2025-09-04 16:39:22,1422539
2025-09-04 16:39:22,1422717
2025-09-04 16:39:22,1422810
2025-09-04 16:39:22,1423096
2025-09-04 16:39:22,1423195
2025-09-04 16:39:22,1423417
2025-09-04 16:39:22,1423734
2025-09-04 16:39:22,1423928
2025-09-04 16:39:22,1424146
2025-09-04 16:39:22,1424368
2025-09-04 16:39:22,1424654
2025-09-04 16:39:22,1424881
2025-09-04 16:39:22,1425113
2025-09-04 16:39:22,1425362
2025-09-04 16:39:22,1425611
2025-09-04 16:39:22,1425756
2025-09-04 16:39:22,1425886
2025-09-04 16:39:22,1425766
2025-09-04 16:39:22,1425265
2025-09-04 16:39:22,1424378
2025-09-04 16:39:22,1423372
2025-09-04 16:39:22,1422393
2025-09-04 16:39:22,1421642
2025-09-04 16:39:22,1420888
2025-09-04 16:39:22,1420291
2025-09-04 16:39:22,1419843
2025-09-04 16:39:22,1419290
2025-09-04 16:39:22,1419025
2025-09-04 16:39:22,1418670
2025-09-04 16:39:22,1418556
2025-09-04 16:39:22,1418451
2025-09-04 16:39:22,1418389
2025-09-04 16:39:22,1418417
2025-09-04 16:39:22,1418340
2025-09-04 16:39:22,1418448
2025-09-04 16:39:22,1418475
2025-09-04 16:39:22,1418655
2025-09-04 16:39:22,1418694
2025-09-04 16:39:22,1418864
2025-09-04 16:39:22,1418961
2025-09-04 16:39:22,1419159
2025-09-04 16:39:22,1419350
2025-09-04 16:39:22,1419576
2025-09-04 16:39:22,1419796
2025-09-04 16:39:22,1419841
2025-09-04 16:39:22,1419967
2025-09-04 16:39:22,1420047
2025-09-04 16:39:22,1419975
2025-09-04 16:39:22,1419962
2025-09-04 16:39:22,1420041
2025-09-04 16:39:22,1420039
2025-09-04 16:39:22,1419951
2025-09-04 16:39:22,1419788
2025-09-04 16:39:22,1419826
2025-09-04 16:39:22,1419834
2025-09-04 16:39:22,1419863
2025-09-04 16:39:22,1419947
2025-09-04 16:39:22,1419877
2025-09-04 16:39:22,1419996
2025-09-04 16:39:22,1420156
2025-09-04 16:39:22,1420340
2025-09-04 16:39:22,1420409
2025-09-04 16:39:22,1420514
2025-09-04 16:39:22,1420752
2025-09-04 16:39:22,1420896
2025-09-04 16:39:22,1421073
2025-09-04 16:39:22,1421230
2025-09-04 16:39:22,1421385
2025-09-04 16:39:22,1421468
2025-09-04 16:39:22,1421748
2025-09-04 16:39:22,1421884
2025-09-04 16:39:22,1421977
2025-09-04 16:39:22,1422159
2025-09-04 16:39:22,1422385
2025-09-04 16:39:22,1422570
2025-09-04 16:39:22,1422705
2025-09-04 16:39:22,1422817
2025-09-04 16:39:23,1422913
2025-09-04 16:39:23,1423102
2025-09-04 16:39:23,1423242
2025-09-04 16:39:23,1423432
2025-09-04 16:39:23,1423576
2025-09-04 16:39:23,1423681
2025-09-04 16:39:23,1423849
2025-09-04 16:39:23,1424034
2025-09-04 16:39:23,1424285
2025-09-04 16:39:23,1424236
2025-09-04 16:39:23,1424390
2025-09-04 16:39:23,1424537
2025-09-04 16:39:23,1424724
2025-09-04 16:39:23,1424825
2025-09-04 16:39:23,1425001
2025-09-04 16:39:23,1425055
2025-09-04 16:39:23,1425259
2025-09-04 16:39:23,1425363
2025-09-04 16:39:23,1425425
2025-09-04 16:39:23,1425602
2025-09-04 16:39:23,1425737
2025-09-04 16:39:23,1425917
2025-09-04 16:39:23,1426099
2025-09-04 16:39:23,1426293
2025-09-04 16:39:23,1426461
2025-09-04 16:39:23,1426595
2025-09-04 16:39:23,1426804
2025-09-04 16:39:23,1426906
2025-09-04 16:39:23,1427006
2025-09-04 16:39:23,1427095
2025-09-04 16:39:23,1426937
2025-09-04 16:39:23,1426378
2025-09-04 16:39:23,1425345
2025-09-04 16:39:23,1424293
2025-09-04 16:39:23,1423256
2025-09-04 16:39:23,1422397
2025-09-04 16:39:23,1421568
2025-09-04 16:39:23,1420809
2025-09-04 16:39:23,1420234
2025-09-04 16:39:23,1419742
2025-09-04 16:39:23,1419189
2025-09-04 16:39:23,1418938
2025-09-04 16:39:23,1418643
2025-09-04 16:39:23,1418624
2025-09-04 16:39:23,1418436
2025-09-04 16:39:23,1418399
2025-09-04 16:39:23,1418295
2025-09-04 16:39:23,1418328
2025-09-04 16:39:23,1418356
2025-09-04 16:39:23,1418305
2025-09-04 16:39:23,1418395
2025-09-04 16:39:23,1418304
2025-09-04 16:39:23,1418282
2025-09-04 16:39:23,1418309
2025-09-04 16:39:23,1418472
2025-09-04 16:39:23,1418516
2025-09-04 16:39:23,1418545
2025-09-04 16:39:23,1418687
2025-09-04 16:39:23,1418658
2025-09-04 16:39:23,1418689
2025-09-04 16:39:23,1418735
2025-09-04 16:39:23,1418707
2025-09-04 16:39:23,1418589
2025-09-04 16:39:23,1418499
2025-09-04 16:39:23,1418519
2025-09-04 16:39:23,1418402
2025-09-04 16:39:23,1418397
2025-09-04 16:39:23,1418242
2025-09-04 16:39:23,1418256
2025-09-04 16:39:23,1418283
2025-09-04 16:39:23,1418228
2025-09-04 16:39:23,1418233
2025-09-04 16:39:23,1418412
2025-09-04 16:39:23,1418373
2025-09-04 16:39:23,1418584
2025-09-04 16:39:23,1418715
2025-09-04 16:39:23,1418861
2025-09-04 16:39:23,1418987
2025-09-04 16:39:23,1419054
2025-09-04 16:39:23,1419314
2025-09-04 16:39:23,1419329
2025-09-04 16:39:23,1419480
2025-09-04 16:39:23,1419715
2025-09-04 16:39:23,1419790
2025-09-04 16:39:23,1419964
2025-09-04 16:39:23,1420052
2025-09-04 16:39:23,1420167
2025-09-04 16:39:23,1420315
2025-09-04 16:39:23,1420475
2025-09-04 16:39:23,1420569
2025-09-04 16:39:23,1420624
2025-09-04 16:39:23,1420729
2025-09-04 16:39:23,1420784
2025-09-04 16:39:23,1420988
2025-09-04 16:39:23,1421127
2025-09-04 16:39:23,1421109
2025-09-04 16:39:23,1421300
2025-09-04 16:39:23,1421398
2025-09-04 16:39:23,1421587
2025-09-04 16:39:23,1421648
2025-09-04 16:39:24,1421827
2025-09-04 16:39:24,1421906
2025-09-04 16:39:24,1422031
2025-09-04 16:39:24,1422203
2025-09-04 16:39:24,1422287
2025-09-04 16:39:24,1422453
2025-09-04 16:39:24,1422500
2025-09-04 16:39:24,1422791
2025-09-04 16:39:24,1422937
2025-09-04 16:39:24,1423104
2025-09-04 16:39:24,1423119
2025-09-04 16:39:24,1423387
2025-09-04 16:39:24,1423453
2025-09-04 16:39:24,1423651
2025-09-04 16:39:24,1423829
2025-09-04 16:39:24,1423980
2025-09-04 16:39:24,1424157
2025-09-04 16:39:24,1424301
2025-09-04 16:39:24,1424431
2025-09-04 16:39:24,1424637
2025-09-04 16:39:24,1424852
2025-09-04 16:39:24,1424752
2025-09-04 16:39:24,1424874
2025-09-04 16:39:24,1424442
2025-09-04 16:39:24,1423572
2025-09-04 16:39:24,1422624
2025-09-04 16:39:24,1421562
2025-09-04 16:39:24,1420708
2025-09-04 16:39:24,1419921
2025-09-04 16:39:24,1419233
2025-09-04 16:39:24,1418672
2025-09-04 16:39:24,1418117
2025-09-04 16:39:24,1417801
2025-09-04 16:39:24,1417419
2025-09-04 16:39:24,1417119
2025-09-04 16:39:24,1417063
2025-09-04 16:39:24,1416928
2025-09-04 16:39:24,1416885
2025-09-04 16:39:24,1416935
2025-09-04 16:39:24,1416910
2025-09-04 16:39:24,1416950
2025-09-04 16:39:24,1416907
2025-09-04 16:39:24,1416925
2025-09-04 16:39:24,1416952
2025-09-04 16:39:24,1417057
2025-09-04 16:39:24,1417038
2025-09-04 16:39:24,1417095
2025-09-04 16:39:24,1417233
2025-09-04 16:39:24,1417411
2025-09-04 16:39:24,1417476
2025-09-04 16:39:24,1417596
2025-09-04 16:39:24,1417664
2025-09-04 16:39:24,1417751
2025-09-04 16:39:24,1417737
2025-09-04 16:39:24,1417708
2025-09-04 16:39:24,1417615
2025-09-04 16:39:24,1417652
2025-09-04 16:39:24,1417647
2025-09-04 16:39:24,1417520
2025-09-04 16:39:24,1417593
2025-09-04 16:39:24,1417583
2025-09-04 16:39:24,1417658
2025-09-04 16:39:24,1417636
2025-09-04 16:39:24,1417732
2025-09-04 16:39:24,1417833
2025-09-04 16:39:24,1417975
2025-09-04 16:39:24,1418103
2025-09-04 16:39:24,1418275
2025-09-04 16:39:24,1418522
2025-09-04 16:39:24,1418691
2025-09-04 16:39:24,1418909
2025-09-04 16:39:24,1419074
2025-09-04 16:39:24,1419301
2025-09-04 16:39:24,1419405
2025-09-04 16:39:24,1419630
2025-09-04 16:39:24,1419720
2025-09-04 16:39:24,1419896
2025-09-04 16:39:24,1420071
2025-09-04 16:39:24,1420284
2025-09-04 16:39:24,1420447
2025-09-04 16:39:24,1420653
2025-09-04 16:39:24,1420861
2025-09-04 16:39:24,1421056
2025-09-04 16:39:24,1421216
2025-09-04 16:39:24,1421415
2025-09-04 16:39:24,1421614
2025-09-04 16:39:24,1421841
2025-09-04 16:39:24,1422089
2025-09-04 16:39:24,1422219
2025-09-04 16:39:24,1422416
2025-09-04 16:39:24,1422645
2025-09-04 16:39:24,1422748
2025-09-04 16:39:24,1422990
2025-09-04 16:39:24,1423134
2025-09-04 16:39:24,1423303
2025-09-04 16:39:24,1423556
2025-09-04 16:39:24,1423752
2025-09-04 16:39:24,1423903
2025-09-04 16:39:24,1424036
2025-09-04 16:39:24,1424303
2025-09-04 16:39:25,1424498
2025-09-04 16:39:25,1424737
2025-09-04 16:39:25,1424840
2025-09-04 16:39:25,1425109
2025-09-04 16:39:25,1425299
2025-09-04 16:39:25,1425570
2025-09-04 16:39:25,1425863
2025-09-04 16:39:25,1426041
2025-09-04 16:39:25,1426215
2025-09-04 16:39:25,1426535
2025-09-04 16:39:25,1426710
2025-09-04 16:39:25,1426894
2025-09-04 16:39:25,1426914
2025-09-04 16:39:25,1426664
2025-09-04 16:39:25,1425884
2025-09-04 16:39:25,1424812
2025-09-04 16:39:25,1423837
2025-09-04 16:39:25,1422797
2025-09-04 16:39:25,1421975
2025-09-04 16:39:25,1421315
2025-09-04 16:39:25,1420707
2025-09-04 16:39:25,1420176
2025-09-04 16:39:25,1419836
2025-09-04 16:39:25,1419497
2025-09-04 16:39:25,1419282
2025-09-04 16:39:25,1419160
2025-09-04 16:39:25,1419154
2025-09-04 16:39:25,1419094
2025-09-04 16:39:25,1419119
2025-09-04 16:39:25,1419307
2025-09-04 16:39:25,1419298
2025-09-04 16:39:25,1419509
2025-09-04 16:39:25,1419614
2025-09-04 16:39:25,1419620
2025-09-04 16:39:25,1419838
2025-09-04 16:39:25,1419927
2025-09-04 16:39:25,1420197
2025-09-04 16:39:25,1420446
2025-09-04 16:39:25,1420676
2025-09-04 16:39:25,1420939
2025-09-04 16:39:25,1421070
2025-09-04 16:39:25,1421085
2025-09-04 16:39:25,1421096
2025-09-04 16:39:25,1421135
2025-09-04 16:39:25,1421177
2025-09-04 16:39:25,1421093
2025-09-04 16:39:25,1421113
2025-09-04 16:39:25,1421034
2025-09-04 16:39:25,1420958
2025-09-04 16:39:25,1420923
2025-09-04 16:39:25,1420831
2025-09-04 16:39:25,1420885
2025-09-04 16:39:25,1420947
2025-09-04 16:39:25,1421041
2025-09-04 16:39:25,1421055
2025-09-04 16:39:25,1421197
2025-09-04 16:39:25,1421316
2025-09-04 16:39:25,1421506
2025-09-04 16:39:25,1421712
2025-09-04 16:39:25,1421895
2025-09-04 16:39:25,1422122
2025-09-04 16:39:25,1422279
2025-09-04 16:39:25,1422458
2025-09-04 16:39:25,1422653
2025-09-04 16:39:25,1422977
2025-09-04 16:39:25,1423072
2025-09-04 16:39:25,1423350
2025-09-04 16:39:25,1423533
2025-09-04 16:39:25,1423694
2025-09-04 16:39:25,1423797
2025-09-04 16:39:25,1424011
2025-09-04 16:39:25,1424156
2025-09-04 16:39:25,1424266
2025-09-04 16:39:25,1424379
2025-09-04 16:39:25,1424580
2025-09-04 16:39:25,1424680
2025-09-04 16:39:25,1424810
2025-09-04 16:39:25,1424851
2025-09-04 16:39:25,1425011
2025-09-04 16:39:25,1425115
2025-09-04 16:39:25,1425144
2025-09-04 16:39:25,1425345
2025-09-04 16:39:25,1425453
2025-09-04 16:39:25,1425594
2025-09-04 16:39:25,1425659
2025-09-04 16:39:25,1425862
2025-09-04 16:39:25,1426051
2025-09-04 16:39:25,1426189
2025-09-04 16:39:25,1426295
2025-09-04 16:39:25,1426498
2025-09-04 16:39:25,1426625
2025-09-04 16:39:25,1426774
2025-09-04 16:39:25,1426973
2025-09-04 16:39:25,1426854
2025-09-04 16:39:25,1426685
2025-09-04 16:39:25,1426009
2025-09-04 16:39:25,1424980
2025-09-04 16:39:25,1423908
2025-09-04 16:39:25,1423070
2025-09-04 16:39:25,1422189
2025-09-04 16:39:26,1421502
2025-09-04 16:39:26,1420863
2025-09-04 16:39:26,1420294
2025-09-04 16:39:26,1419725
2025-09-04 16:39:26,1419413
2025-09-04 16:39:26,1419141
2025-09-04 16:39:26,1418909
2025-09-04 16:39:26,1418771
2025-09-04 16:39:26,1418801
2025-09-04 16:39:26,1418767
2025-09-04 16:39:26,1418724
2025-09-04 16:39:26,1418811
2025-09-04 16:39:26,1418851
2025-09-04 16:39:26,1418893
2025-09-04 16:39:26,1418924
2025-09-04 16:39:26,1419042
2025-09-04 16:39:26,1419194
2025-09-04 16:39:26,1419388
2025-09-04 16:39:26,1419625
2025-09-04 16:39:26,1419723
2025-09-04 16:39:26,1419757
2025-09-04 16:39:26,1419816
2025-09-04 16:39:26,1419852
2025-09-04 16:39:26,1419905
2025-09-04 16:39:26,1419776
2025-09-04 16:39:26,1419705
2025-09-04 16:39:26,1419726
2025-09-04 16:39:26,1419596
2025-09-04 16:39:26,1419444
2025-09-04 16:39:26,1419468
2025-09-04 16:39:26,1419305
2025-09-04 16:39:26,1419232
2025-09-04 16:39:26,1419290
2025-09-04 16:39:26,1419280
2025-09-04 16:39:26,1419215
2025-09-04 16:39:26,1419378
2025-09-04 16:39:26,1419492
2025-09-04 16:39:26,1419542
2025-09-04 16:39:26,1419690
2025-09-04 16:39:26,1419760
2025-09-04 16:39:26,1419867
2025-09-04 16:39:26,1420027
2025-09-04 16:39:26,1420214
2025-09-04 16:39:26,1420307
2025-09-04 16:39:26,1420460
2025-09-04 16:39:26,1420684
2025-09-04 16:39:26,1420692
2025-09-04 16:39:26,1420928
2025-09-04 16:39:26,1420992
2025-09-04 16:39:26,1421279
2025-09-04 16:39:26,1421359
2025-09-04 16:39:26,1421483
2025-09-04 16:39:26,1421594
2025-09-04 16:39:26,1421827
2025-09-04 16:39:26,1421902
2025-09-04 16:39:26,1422055
2025-09-04 16:39:26,1422101
2025-09-04 16:39:26,1422211
2025-09-04 16:39:26,1422371
2025-09-04 16:39:26,1422592
2025-09-04 16:39:26,1422591
2025-09-04 16:39:26,1422740
2025-09-04 16:39:26,1422877
2025-09-04 16:39:26,1423067
2025-09-04 16:39:26,1423176
2025-09-04 16:39:26,1423274
2025-09-04 16:39:26,1423444
2025-09-04 16:39:26,1423643
2025-09-04 16:39:26,1423740
2025-09-04 16:39:26,1423806
2025-09-04 16:39:26,1424015
2025-09-04 16:39:26,1424121
2025-09-04 16:39:26,1424317
2025-09-04 16:39:26,1424441
2025-09-04 16:39:26,1424370
2025-09-04 16:39:26,1424093
2025-09-04 16:39:26,1423333
2025-09-04 16:39:26,1422243
2025-09-04 16:39:26,1421162
2025-09-04 16:39:26,1420163
2025-09-04 16:39:26,1419265
2025-09-04 16:39:26,1418512
2025-09-04 16:39:26,1417801
2025-09-04 16:39:26,1417171
2025-09-04 16:39:26,1416612
2025-09-04 16:39:26,1416090
2025-09-04 16:39:26,1415767
2025-09-04 16:39:26,1415579
2025-09-04 16:39:26,1415432
2025-09-04 16:39:26,1415282
2025-09-04 16:39:26,1415129
2025-09-04 16:39:26,1415125
2025-09-04 16:39:26,1415077
2025-09-04 16:39:26,1415065
2025-09-04 16:39:26,1415043
2025-09-04 16:39:26,1415009
2025-09-04 16:39:26,1415027
2025-09-04 16:39:26,1415013
2025-09-04 16:39:26,1414991
2025-09-04 16:39:26,1415060
2025-09-04 16:39:27,1415163
2025-09-04 16:39:27,1415252
2025-09-04 16:39:27,1415307
2025-09-04 16:39:27,1415370
2025-09-04 16:39:27,1415311
2025-09-04 16:39:27,1415364
2025-09-04 16:39:27,1415206
2025-09-04 16:39:27,1415193
2025-09-04 16:39:27,1415084
2025-09-04 16:39:27,1414989
2025-09-04 16:39:27,1414923
2025-09-04 16:39:27,1414902
2025-09-04 16:39:27,1414895
2025-09-04 16:39:27,1414806
2025-09-04 16:39:27,1414795
2025-09-04 16:39:27,1414797
2025-09-04 16:39:27,1414837
2025-09-04 16:39:27,1414887
2025-09-04 16:39:27,1415037
2025-09-04 16:39:27,1415121
2025-09-04 16:39:27,1415197
2025-09-04 16:39:27,1415345
2025-09-04 16:39:27,1415513
2025-09-04 16:39:27,1415718
2025-09-04 16:39:27,1415815
2025-09-04 16:39:27,1415972
2025-09-04 16:39:27,1416071
2025-09-04 16:39:27,1416328
2025-09-04 16:39:27,1416342
2025-09-04 16:39:27,1416506
2025-09-04 16:39:27,1416697
2025-09-04 16:39:27,1416764
2025-09-04 16:39:27,1416971
2025-09-04 16:39:27,1417094
2025-09-04 16:39:27,1417167
2025-09-04 16:39:27,1417293
2025-09-04 16:39:27,1417348
2025-09-04 16:39:27,1417433
2025-09-04 16:39:27,1417560
2025-09-04 16:39:27,1417641
2025-09-04 16:39:27,1417841
2025-09-04 16:39:27,1418032
2025-09-04 16:39:27,1418166
2025-09-04 16:39:27,1418263
2025-09-04 16:39:27,1418451
2025-09-04 16:39:27,1418503
2025-09-04 16:39:27,1418711
2025-09-04 16:39:27,1418776
2025-09-04 16:39:27,1418995
2025-09-04 16:39:27,1419165
2025-09-04 16:39:27,1419286
2025-09-04 16:39:27,1419467
2025-09-04 16:39:27,1419584
2025-09-04 16:39:27,1419631
2025-09-04 16:39:27,1419329
2025-09-04 16:39:27,1418720
2025-09-04 16:39:27,1417703
2025-09-04 16:39:27,1416706
2025-09-04 16:39:27,1415836
2025-09-04 16:39:27,1414895
2025-09-04 16:39:27,1414163
2025-09-04 16:39:27,1413392
2025-09-04 16:39:27,1412792
2025-09-04 16:39:27,1412417
2025-09-04 16:39:27,1411929
2025-09-04 16:39:27,1411611
2025-09-04 16:39:27,1411314
2025-09-04 16:39:27,1411185
2025-09-04 16:39:27,1411068
2025-09-04 16:39:27,1410975
2025-09-04 16:39:27,1410924
2025-09-04 16:39:27,1410897
2025-09-04 16:39:27,1410911
2025-09-04 16:39:27,1410931
2025-09-04 16:39:27,1410994
2025-09-04 16:39:27,1410869
2025-09-04 16:39:27,1410915
2025-09-04 16:39:27,1411008
2025-09-04 16:39:27,1411173
2025-09-04 16:39:27,1411277
2025-09-04 16:39:27,1411297
2025-09-04 16:39:27,1411249
2025-09-04 16:39:27,1411309
2025-09-04 16:39:27,1411269
2025-09-04 16:39:27,1411260
2025-09-04 16:39:27,1411218
2025-09-04 16:39:27,1411006
2025-09-04 16:39:27,1411026
2025-09-04 16:39:27,1410846
2025-09-04 16:39:27,1410827
2025-09-04 16:39:27,1410674
2025-09-04 16:39:27,1410652
2025-09-04 16:39:27,1410665
2025-09-04 16:39:27,1410743
2025-09-04 16:39:27,1410702
2025-09-04 16:39:27,1410744
2025-09-04 16:39:27,1410833
2025-09-04 16:39:27,1410860
2025-09-04 16:39:27,1411069
2025-09-04 16:39:28,1411149
2025-09-04 16:39:28,1411291
2025-09-04 16:39:28,1411421
2025-09-04 16:39:28,1411685
2025-09-04 16:39:28,1411731
2025-09-04 16:39:28,1411819
2025-09-04 16:39:28,1411936
2025-09-04 16:39:28,1412119
2025-09-04 16:39:28,1412341
2025-09-04 16:39:28,1412449
2025-09-04 16:39:28,1412600
2025-09-04 16:39:28,1412639
2025-09-04 16:39:28,1412752
2025-09-04 16:39:28,1412953
2025-09-04 16:39:28,1413095
2025-09-04 16:39:28,1413191
2025-09-04 16:39:28,1413210
2025-09-04 16:39:28,1413430
2025-09-04 16:39:28,1413488
2025-09-04 16:39:28,1413605
2025-09-04 16:39:28,1413734
2025-09-04 16:39:28,1413837
2025-09-04 16:39:28,1414065
2025-09-04 16:39:28,1414281
2025-09-04 16:39:28,1414345
2025-09-04 16:39:28,1414513
2025-09-04 16:39:28,1414618
2025-09-04 16:39:28,1414785
2025-09-04 16:39:28,1414844
2025-09-04 16:39:28,1414809
2025-09-04 16:39:28,1414552
2025-09-04 16:39:28,1413973
2025-09-04 16:39:28,1413060
2025-09-04 16:39:28,1412225
2025-09-04 16:39:28,1411318
2025-09-04 16:39:28,1410554
2025-09-04 16:39:28,1409805
2025-09-04 16:39:28,1409234
2025-09-04 16:39:28,1408793
2025-09-04 16:39:28,1408220
2025-09-04 16:39:28,1408011
2025-09-04 16:39:28,1407720
2025-09-04 16:39:28,1407554
2025-09-04 16:39:28,1407520
2025-09-04 16:39:28,1407453
2025-09-04 16:39:28,1407434
2025-09-04 16:39:28,1407517
2025-09-04 16:39:28,1407457
2025-09-04 16:39:28,1407590
2025-09-04 16:39:28,1407600
2025-09-04 16:39:28,1407682
2025-09-04 16:39:28,1407747
2025-09-04 16:39:28,1407814
2025-09-04 16:39:28,1408006
2025-09-04 16:39:28,1408237
2025-09-04 16:39:28,1408244
2025-09-04 16:39:28,1408347
2025-09-04 16:39:28,1408362
2025-09-04 16:39:28,1408534
2025-09-04 16:39:28,1408510
2025-09-04 16:39:28,1408450
2025-09-04 16:39:28,1408325
2025-09-04 16:39:28,1408309
2025-09-04 16:39:28,1408308
2025-09-04 16:39:28,1408281
2025-09-04 16:39:28,1408279
2025-09-04 16:39:28,1408278
2025-09-04 16:39:28,1408412
2025-09-04 16:39:28,1408302
2025-09-04 16:39:28,1408412
2025-09-04 16:39:28,1408605
2025-09-04 16:39:28,1408670
2025-09-04 16:39:28,1408809
2025-09-04 16:39:28,1408971
2025-09-04 16:39:28,1409105
2025-09-04 16:39:28,1409311
2025-09-04 16:39:28,1409543
2025-09-04 16:39:28,1409641
2025-09-04 16:39:28,1409887
2025-09-04 16:39:28,1410038
2025-09-04 16:39:28,1410188
2025-09-04 16:39:28,1410504
2025-09-04 16:39:28,1410662
2025-09-04 16:39:28,1410915
2025-09-04 16:39:28,1411044
2025-09-04 16:39:28,1411206
2025-09-04 16:39:28,1411306
2025-09-04 16:39:28,1411556
2025-09-04 16:39:28,1411742
2025-09-04 16:39:28,1411892
2025-09-04 16:39:28,1411969
2025-09-04 16:39:28,1412246
2025-09-04 16:39:28,1412425
2025-09-04 16:39:28,1412512
2025-09-04 16:39:28,1412726
2025-09-04 16:39:28,1412882
2025-09-04 16:39:28,1413185
2025-09-04 16:39:28,1413221
2025-09-04 16:39:28,1413530
2025-09-04 16:39:28,1413734
2025-09-04 16:39:29,1413977
2025-09-04 16:39:29,1414152
2025-09-04 16:39:29,1414410
2025-09-04 16:39:29,1414633
2025-09-04 16:39:29,1414619
2025-09-04 16:39:29,1414547
2025-09-04 16:39:29,1413803
2025-09-04 16:39:29,1412902
2025-09-04 16:39:29,1411986
2025-09-04 16:39:29,1411115
2025-09-04 16:39:29,1410333
2025-09-04 16:39:29,1409644
2025-09-04 16:39:29,1409094
2025-09-04 16:39:29,1408527
2025-09-04 16:39:29,1408136
2025-09-04 16:39:29,1407853
2025-09-04 16:39:29,1407663
2025-09-04 16:39:29,1407546
2025-09-04 16:39:29,1407449
2025-09-04 16:39:29,1407460
2025-09-04 16:39:29,1407388
2025-09-04 16:39:29,1407482
2025-09-04 16:39:29,1407597
2025-09-04 16:39:29,1407605
2025-09-04 16:39:29,1407755
2025-09-04 16:39:29,1407860
2025-09-04 16:39:29,1408101
2025-09-04 16:39:29,1408103
2025-09-04 16:39:29,1408360
2025-09-04 16:39:29,1408623
2025-09-04 16:39:29,1408875
2025-09-04 16:39:29,1408918
2025-09-04 16:39:29,1409142
2025-09-04 16:39:29,1409101
2025-09-04 16:39:29,1409154
2025-09-04 16:39:29,1409093
2025-09-04 16:39:29,1409119
2025-09-04 16:39:29,1409097
2025-09-04 16:39:29,1409096
2025-09-04 16:39:29,1409093
2025-09-04 16:39:29,1409003
2025-09-04 16:39:29,1408965
2025-09-04 16:39:29,1409028
2025-09-04 16:39:29,1409079
2025-09-04 16:39:29,1409201
2025-09-04 16:39:29,1409291
2025-09-04 16:39:29,1409459
2025-09-04 16:39:29,1409658
2025-09-04 16:39:29,1409842
2025-09-04 16:39:29,1409995
2025-09-04 16:39:29,1410211
2025-09-04 16:39:29,1410513
2025-09-04 16:39:29,1410718
2025-09-04 16:39:29,1410952
2025-09-04 16:39:29,1411233
2025-09-04 16:39:29,1411342
2025-09-04 16:39:29,1411640
2025-09-04 16:39:29,1411891
2025-09-04 16:39:29,1412055
2025-09-04 16:39:29,1412267
2025-09-04 16:39:29,1412489
2025-09-04 16:39:29,1412539
2025-09-04 16:39:29,1412903
2025-09-04 16:39:21,1412844
2025-09-04 16:39:27,1413117
2025-09-04 16:39:29,1413320
2025-09-04 16:39:29,1413464
2025-09-04 16:39:29,1413683
2025-09-04 16:39:29,1413760
2025-09-04 16:39:29,1413905
2025-09-04 16:39:29,1414047
2025-09-04 16:39:29,1414232
2025-09-04 16:39:29,1414375
2025-09-04 16:39:29,1414669
2025-09-04 16:39:29,1414779
2025-09-04 16:39:29,1415059
2025-09-04 16:39:29,1415223
2025-09-04 16:39:29,1415436
2025-09-04 16:39:29,1415484
2025-09-04 16:39:29,1415717
2025-09-04 16:39:29,1415605
2025-09-04 16:39:29,1415087
2025-09-04 16:39:29,1414191
2025-09-04 16:39:29,1413239
2025-09-04 16:39:29,1412256
2025-09-04 16:39:29,1411495
2025-09-04 16:39:29,1410798
2025-09-04 16:39:29,1410257
2025-09-04 16:39:29,1409726
2025-09-04 16:39:29,1409381
2025-09-04 16:39:29,1409059
2025-09-04 16:39:29,1408688
2025-09-04 16:39:29,1408631
2025-09-04 16:39:29,1408526
2025-09-04 16:39:29,1408479
2025-09-04 16:39:29,1408557
2025-09-04 16:39:29,1408599
2025-09-04 16:39:29,1408806
2025-09-04 16:39:29,1408868
2025-09-04 16:39:29,1408982
2025-09-04 16:39:29,1409063
2025-09-04 16:39:30,1409293
2025-09-04 16:39:30,1409418
2025-09-04 16:39:30,1409676
2025-09-04 16:39:30,1409940
2025-09-04 16:39:30,1410125
2025-09-04 16:39:30,1410245
2025-09-04 16:39:30,1410237
2025-09-04 16:39:30,1410311
2025-09-04 16:39:30,1410341
2025-09-04 16:39:30,1410321
2025-09-04 16:39:30,1410218
2025-09-04 16:39:30,1410171
2025-09-04 16:39:30,1410080
2025-09-04 16:39:30,1409925
2025-09-04 16:39:30,1409824
2025-09-04 16:39:30,1409825
2025-09-04 16:39:30,1409803
2025-09-04 16:39:30,1409750
2025-09-04 16:39:30,1409792
2025-09-04 16:39:30,1409927
2025-09-04 16:39:30,1409977
2025-09-04 16:39:30,1410124
2025-09-04 16:39:30,1410186
2025-09-04 16:39:30,1410425
2025-09-04 16:39:30,1410523
2025-09-04 16:39:30,1410702
2025-09-04 16:39:30,1410887
2025-09-04 16:39:30,1411020
2025-09-04 16:39:30,1411115
2025-09-04 16:39:30,1411380
2025-09-04 16:39:30,1411507
2025-09-04 16:39:30,1411679
2025-09-04 16:39:30,1411968
2025-09-04 16:39:30,1412116
2025-09-04 16:39:30,1412268
2025-09-04 16:39:30,1412432
2025-09-04 16:39:30,1412608
2025-09-04 16:39:30,1412724
2025-09-04 16:39:30,1412879
2025-09-04 16:39:30,1413010
2025-09-04 16:39:30,1413125
2025-09-04 16:39:30,1413384
2025-09-04 16:39:30,1413512
2025-09-04 16:39:30,1413607
2025-09-04 16:39:30,1413699
2025-09-04 16:39:30,1413948
2025-09-04 16:39:30,1414024
2025-09-04 16:39:30,1414326
2025-09-04 16:39:30,1414254
2025-09-04 16:39:30,1414477
2025-09-04 16:39:30,1414631
2025-09-04 16:39:30,1414839
2025-09-04 16:39:30,1414983
2025-09-04 16:39:30,1414969
2025-09-04 16:39:30,1414601
2025-09-04 16:39:30,1413917
2025-09-04 16:39:30,1412989
2025-09-04 16:39:30,1411928
2025-09-04 16:39:30,1410981
2025-09-04 16:39:30,1410246
2025-09-04 16:39:30,1409545
2025-09-04 16:39:30,1408929
2025-09-04 16:39:30,1408359
2025-09-04 16:39:30,1407846
2025-09-04 16:39:30,1407499
2025-09-04 16:39:30,1407218
2025-09-04 16:39:30,1407069
2025-09-04 16:39:30,1407105
2025-09-04 16:39:30,1406953
2025-09-04 16:39:30,1406973
2025-09-04 16:39:30,1407006
2025-09-04 16:39:30,1407011
2025-09-04 16:39:30,1406952
2025-09-04 16:39:30,1407024
2025-09-04 16:39:30,1407143
2025-09-04 16:39:30,1407149
2025-09-04 16:39:30,1407221
2025-09-04 16:39:30,1407320
2025-09-04 16:39:30,1407549
2025-09-04 16:39:30,1407759
2025-09-04 16:39:30,1407854
2025-09-04 16:39:30,1407886
2025-09-04 16:39:30,1407959
2025-09-04 16:39:30,1407990
2025-09-04 16:39:30,1407850
2025-09-04 16:39:30,1407862
2025-09-04 16:39:30,1407835
2025-09-04 16:39:30,1407771
2025-09-04 16:39:30,1407711
2025-09-04 16:39:30,1407588
2025-09-04 16:39:30,1407508
2025-09-04 16:39:30,1407621
2025-09-04 16:39:30,1407566
2025-09-04 16:39:30,1407656
2025-09-04 16:39:30,1407741
2025-09-04 16:39:30,1407916
2025-09-04 16:39:30,1408004
2025-09-04 16:39:30,1408160
2025-09-04 16:39:30,1408253
2025-09-04 16:39:30,1408487
2025-09-04 16:39:31,1408620
2025-09-04 16:39:31,1408801
2025-09-04 16:39:31,1408996
2025-09-04 16:39:31,1409232
2025-09-04 16:39:31,1409436
2025-09-04 16:39:31,1409620
2025-09-04 16:39:31,1409688
2025-09-04 16:39:31,1409884
2025-09-04 16:39:31,1410032
2025-09-04 16:39:31,1410227
2025-09-04 16:39:31,1410500
2025-09-04 16:39:31,1410583
2025-09-04 16:39:31,1410732
2025-09-04 16:39:31,1410894
2025-09-04 16:39:31,1411039
2025-09-04 16:39:31,1411107
2025-09-04 16:39:31,1411295
2025-09-04 16:39:31,1411385
2025-09-04 16:39:31,1411598
2025-09-04 16:39:31,1411772
2025-09-04 16:39:31,1411841
2025-09-04 16:39:31,1412074
2025-09-04 16:39:31,1412258
2025-09-04 16:39:31,1412374
2025-09-04 16:39:31,1412479
2025-09-04 16:39:31,1412654
2025-09-04 16:39:31,1412875
2025-09-04 16:39:31,1413015
2025-09-04 16:39:31,1413153
2025-09-04 16:39:31,1413373
2025-09-04 16:39:31,1413594
2025-09-04 16:39:31,1413797
2025-09-04 16:39:31,1413964
2025-09-04 16:39:31,1414109
2025-09-04 16:39:31,1414194
2025-09-04 16:39:31,1414148
2025-09-04 16:39:31,1413532
2025-09-04 16:39:31,1412533
2025-09-04 16:39:31,1411288
2025-09-04 16:39:31,1410318
2025-09-04 16:39:31,1409507
2025-09-04 16:39:31,1408673
2025-09-04 16:39:31,1407994
2025-09-04 16:39:31,1407284
2025-09-04 16:39:31,1406880
2025-09-04 16:39:33,1406432
2025-09-04 16:39:31,1406108
2025-09-04 16:39:31,1405933
2025-09-04 16:39:31,1405760
2025-09-04 16:39:31,1405673
2025-09-04 16:39:31,1405692
2025-09-04 16:39:31,1405588
2025-09-04 16:39:33,1405565
2025-09-04 16:39:31,1405622
2025-09-04 16:39:31,1405467
2025-09-04 16:39:31,1405482
2025-09-04 16:39:31,1405473
2025-09-04 16:39:31,1405432
2025-09-04 16:39:31,1405551
2025-09-04 16:39:31,1405660
2025-09-04 16:39:31,1405742
2025-09-04 16:39:31,1405871
2025-09-04 16:39:31,1405981
2025-09-04 16:39:31,1406004
2025-09-04 16:39:31,1405980
2025-09-04 16:39:31,1406008
2025-09-04 16:39:31,1406044
2025-09-04 16:39:31,1406046
2025-09-04 16:39:31,1406051
2025-09-04 16:39:31,1406051
2025-09-04 16:39:31,1405970
2025-09-04 16:39:31,1405956
2025-09-04 16:39:31,1405938
2025-09-04 16:39:31,1406056
2025-09-04 16:39:31,1405905
2025-09-04 16:39:31,1406104
2025-09-04 16:39:31,1406157
2025-09-04 16:39:31,1406295
2025-09-04 16:39:31,1406379
2025-09-04 16:39:31,1406590
2025-09-04 16:39:31,1406692
2025-09-04 16:39:31,1406913
2025-09-04 16:39:31,1406923
2025-09-04 16:39:31,1407186
2025-09-04 16:39:31,1407343
2025-09-04 16:39:31,1407502
2025-09-04 16:39:31,1407721
2025-09-04 16:39:31,1407797
2025-09-04 16:39:31,1408071
2025-09-04 16:39:31,1408110
2025-09-04 16:39:31,1408232
2025-09-04 16:39:31,1408472
2025-09-04 16:39:31,1408650
2025-09-04 16:39:31,1408771
2025-09-04 16:39:31,1408970
2025-09-04 16:39:31,1409117
2025-09-04 16:39:31,1409174
2025-09-04 16:39:31,1409300
2025-09-04 16:39:31,1409457
2025-09-04 16:39:32,1409647
2025-09-04 16:39:32,1409807
2025-09-04 16:39:32,1409981
2025-09-04 16:39:32,1410152
2025-09-04 16:39:32,1410264
2025-09-04 16:39:32,1410367
2025-09-04 16:39:32,1410621
2025-09-04 16:39:32,1410739
2025-09-04 16:39:32,1410966
2025-09-04 16:39:32,1411074
2025-09-04 16:39:32,1411227
2025-09-04 16:39:32,1411480
2025-09-04 16:39:32,1411686
2025-09-04 16:39:32,1411896
2025-09-04 16:39:32,1412001
2025-09-04 16:39:32,1412319
2025-09-04 16:39:32,1412444
2025-09-04 16:39:32,1412643
2025-09-04 16:39:32,1412839
2025-09-04 16:39:32,1412977
2025-09-04 16:39:32,1413195
2025-09-04 16:39:32,1413217
2025-09-04 16:39:32,1413231
2025-09-04 16:39:32,1412752
2025-09-04 16:39:32,1411879
2025-09-04 16:39:32,1410771
2025-09-04 16:39:32,1409712
2025-09-04 16:39:32,1408734
2025-09-04 16:39:32,1408086
2025-09-04 16:39:32,1407318
2025-09-04 16:39:32,1406720
2025-09-04 16:39:32,1406236
2025-09-04 16:39:32,1405851
2025-09-04 16:39:32,1405551
2025-09-04 16:39:32,1405307
2025-09-04 16:39:32,1405191
2025-09-04 16:39:32,1405208
2025-09-04 16:39:32,1405218
2025-09-04 16:39:32,1405211
2025-09-04 16:39:32,1405167
2025-09-04 16:39:32,1405276
2025-09-04 16:39:32,1405252
2025-09-04 16:39:32,1405301
2025-09-04 16:39:32,1405298
2025-09-04 16:39:32,1405405
2025-09-04 16:39:32,1405480
2025-09-04 16:39:32,1405582
2025-09-04 16:39:32,1405712
2025-09-04 16:39:32,1405929
2025-09-04 16:39:32,1406015
2025-09-04 16:39:32,1406001
2025-09-04 16:39:32,1406048
2025-09-04 16:39:32,1406072
2025-09-04 16:39:32,1405970
2025-09-04 16:39:32,1405987
2025-09-04 16:39:32,1405990
2025-09-04 16:39:32,1405880
2025-09-04 16:39:32,1405826
2025-09-04 16:39:32,1405833
2025-09-04 16:39:32,1405825
2025-09-04 16:39:32,1405816
2025-09-04 16:39:32,1405908
2025-09-04 16:39:32,1405944
2025-09-04 16:39:32,1406004
2025-09-04 16:39:32,1406249
2025-09-04 16:39:32,1406263
2025-09-04 16:39:32,1406552
2025-09-04 16:39:32,1406659
2025-09-04 16:39:32,1406818
2025-09-04 16:39:32,1406981
2025-09-04 16:39:32,1407125
2025-09-04 16:39:32,1407355
2025-09-04 16:39:32,1407523
2025-09-04 16:39:32,1407679
2025-09-04 16:39:32,1407900
2025-09-04 16:39:32,1408050
2025-09-04 16:39:32,1408266
2025-09-04 16:39:32,1408365
2025-09-04 16:39:32,1408639
2025-09-04 16:39:32,1408792
2025-09-04 16:39:32,1408927
2025-09-04 16:39:32,1409015
2025-09-04 16:39:32,1409108
2025-09-04 16:39:32,1409466
2025-09-04 16:39:32,1409503
2025-09-04 16:39:32,1409712
2025-09-04 16:39:32,1409897
2025-09-04 16:39:32,1410003
2025-09-04 16:39:32,1410123
2025-09-04 16:39:32,1410264
2025-09-04 16:39:32,1410514
2025-09-04 16:39:32,1410555
2025-09-04 16:39:32,1410658
2025-09-04 16:39:32,1410931
2025-09-04 16:39:32,1411056
2025-09-04 16:39:32,1411292
2025-09-04 16:39:32,1411442
2025-09-04 16:39:32,1411555
2025-09-04 16:39:32,1411741
2025-09-04 16:39:32,1411905
2025-09-04 16:39:33,1412142
2025-09-04 16:39:33,1412317
2025-09-04 16:39:33,1412515
2025-09-04 16:39:33,1412722
2025-09-04 16:39:33,1412942
2025-09-04 16:39:33,1413197
2025-09-04 16:39:33,1413366
2025-09-04 16:39:33,1413579
2025-09-04 16:39:33,1413851
2025-09-04 16:39:33,1414075
2025-09-04 16:39:33,1414210
2025-09-04 16:39:33,1414298
2025-09-04 16:39:33,1414072
2025-09-04 16:39:33,1413370
2025-09-04 16:39:33,1412236
2025-09-04 16:39:33,1411129
2025-09-04 16:39:33,1410233
2025-09-04 16:39:33,1409420
2025-09-04 16:39:33,1408666
2025-09-04 16:39:33,1408069
2025-09-04 16:39:33,1407534
2025-09-04 16:39:33,1407152
2025-09-04 16:39:33,1406844
2025-09-04 16:39:33,1406583
2025-09-04 16:39:33,1406508
2025-09-04 16:39:33,1406451
2025-09-04 16:39:33,1406551
2025-09-04 16:39:33,1406579
2025-09-04 16:39:33,1406652
2025-09-04 16:39:33,1406820
2025-09-04 16:39:33,1406868
2025-09-04 16:39:33,1406997
2025-09-04 16:39:33,1407068
2025-09-04 16:39:33,1407214
2025-09-04 16:39:33,1407284
2025-09-04 16:39:33,1407505
2025-09-04 16:39:33,1407798
2025-09-04 16:39:33,1407975
2025-09-04 16:39:33,1408043
2025-09-04 16:39:33,1408212
2025-09-04 16:39:33,1408229
2025-09-04 16:39:33,1408272
2025-09-04 16:39:33,1408318
2025-09-04 16:39:33,1408223
2025-09-04 16:39:33,1408245
2025-09-04 16:39:33,1408257
2025-09-04 16:39:33,1408174
2025-09-04 16:39:33,1408102
2025-09-04 16:39:33,1408108
2025-09-04 16:39:33,1408056
2025-09-04 16:39:33,1408103
2025-09-04 16:39:33,1408117
2025-09-04 16:39:33,1408321
2025-09-04 16:39:33,1408333
2025-09-04 16:39:33,1408526
2025-09-04 16:39:33,1408745
2025-09-04 16:39:33,1408872
2025-09-04 16:39:33,1409148
2025-09-04 16:39:33,1409328
2025-09-04 16:39:33,1409546
2025-09-04 16:39:33,1409739
2025-09-04 16:39:33,1409921
2025-09-04 16:39:33,1410104
2025-09-04 16:39:33,1410488
2025-09-04 16:39:33,1410718
2025-09-04 16:39:33,1410892
2025-09-04 16:39:33,1411137
2025-09-04 16:39:33,1411314
2025-09-04 16:39:33,1411564
2025-09-04 16:39:33,1411746
2025-09-04 16:39:33,1411936
2025-09-04 16:39:33,1412138
2025-09-04 16:39:33,1412308
2025-09-04 16:39:33,1412554
2025-09-04 16:39:33,1412620
2025-09-04 16:39:33,1412818
2025-09-04 16:39:33,1412939
2025-09-04 16:39:33,1413138
2025-09-04 16:39:33,1413331
2025-09-04 16:39:33,1413514
2025-09-04 16:39:33,1413604
2025-09-04 16:39:33,1413839
2025-09-04 16:39:33,1413948
2025-09-04 16:39:33,1414249
2025-09-04 16:39:33,1414382
2025-09-04 16:39:33,1414655
2025-09-04 16:39:33,1414764
2025-09-04 16:39:33,1414990
2025-09-04 16:39:33,1415214
2025-09-04 16:39:33,1415406
2025-09-04 16:39:33,1415692
2025-09-04 16:39:33,1415812
2025-09-04 16:39:33,1415990
2025-09-04 16:39:33,1416294
2025-09-04 16:39:33,1416516
2025-09-04 16:39:33,1416751
2025-09-04 16:39:33,1416977
2025-09-04 16:39:33,1417322
2025-09-04 16:39:33,1417555
2025-09-04 16:39:33,1417798
2025-09-04 16:39:34,1417857
2025-09-04 16:39:34,1417732
2025-09-04 16:39:34,1417228
2025-09-04 16:39:34,1416130
2025-09-04 16:39:34,1415071
2025-09-04 16:39:34,1413988
2025-09-04 16:39:34,1413087
2025-09-04 16:39:34,1412348
2025-09-04 16:39:34,1411672
2025-09-04 16:39:34,1411186
2025-09-04 16:39:34,1410717
2025-09-04 16:39:34,1410454
2025-09-04 16:39:34,1410189
2025-09-04 16:39:34,1410076
2025-09-04 16:39:34,1409968
2025-09-04 16:39:34,1410085
2025-09-04 16:39:34,1410035
2025-09-04 16:39:34,1410119
2025-09-04 16:39:34,1410228
2025-09-04 16:39:34,1410439
2025-09-04 16:39:34,1410498
2025-09-04 16:39:34,1410659
2025-09-04 16:39:34,1410783
2025-09-04 16:39:34,1411108
2025-09-04 16:39:34,1411328
2025-09-04 16:39:34,1411550
2025-09-04 16:39:34,1411787
2025-09-04 16:39:34,1411908
2025-09-04 16:39:34,1411943
2025-09-04 16:39:34,1412137
2025-09-04 16:39:34,1412057
2025-09-04 16:39:34,1412072
2025-09-04 16:39:34,1411938
2025-09-04 16:39:34,1411863
2025-09-04 16:39:34,1411761
2025-09-04 16:39:34,1411610
2025-09-04 16:39:34,1411484
2025-09-04 16:39:34,1411412
2025-09-04 16:39:34,1411434
2025-09-04 16:39:34,1411369
2025-09-04 16:39:34,1411437
2025-09-04 16:39:34,1411516
2025-09-04 16:39:34,1411558
2025-09-04 16:39:34,1411581
2025-09-04 16:39:34,1411813
2025-09-04 16:39:34,1411935
2025-09-04 16:39:34,1412056
2025-09-04 16:39:34,1412242
2025-09-04 16:39:34,1412414
2025-09-04 16:39:34,1412588
2025-09-04 16:39:34,1412752
2025-09-04 16:39:34,1412989
2025-09-04 16:39:34,1413061
2025-09-04 16:39:34,1413220
2025-09-04 16:39:34,1413434
2025-09-04 16:39:34,1413478
2025-09-04 16:39:34,1413688
2025-09-04 16:39:34,1413832
2025-09-04 16:39:34,1414015
2025-09-04 16:39:34,1414221
2025-09-04 16:39:34,1414286
2025-09-04 16:39:34,1414476
2025-09-04 16:39:34,1414598
2025-09-04 16:39:34,1414624
2025-09-04 16:39:34,1414830
2025-09-04 16:39:34,1414949
2025-09-04 16:39:34,1415073
2025-09-04 16:39:34,1415273
2025-09-04 16:39:34,1415361
2025-09-04 16:39:34,1415433
2025-09-04 16:39:34,1415604
2025-09-04 16:39:34,1415693
2025-09-04 16:39:34,1415886
2025-09-04 16:39:34,1416008
2025-09-04 16:39:34,1416163
2025-09-04 16:39:34,1416403
2025-09-04 16:39:34,1416580
2025-09-04 16:39:34,1416692
2025-09-04 16:39:34,1416867
2025-09-04 16:39:34,1417013
2025-09-04 16:39:34,1417228
2025-09-04 16:39:34,1417263
2025-09-04 16:39:34,1417520
2025-09-04 16:39:34,1417396
2025-09-04 16:39:34,1416961
2025-09-04 16:39:34,1416056
2025-09-04 16:39:34,1414916
2025-09-04 16:39:34,1413761
2025-09-04 16:39:34,1412831
2025-09-04 16:39:34,1411970
2025-09-04 16:39:34,1411153
2025-09-04 16:39:34,1410604
2025-09-04 16:39:34,1410198
2025-09-04 16:39:34,1409768
2025-09-04 16:39:34,1409419
2025-09-04 16:39:34,1409185
2025-09-04 16:39:34,1409025
2025-09-04 16:39:34,1409031
2025-09-04 16:39:34,1408976
2025-09-04 16:39:35,1408929
2025-09-04 16:39:35,1409053
2025-09-04 16:39:35,1409053
2025-09-04 16:39:35,1409153
2025-09-04 16:39:35,1409238
2025-09-04 16:39:35,1409265
2025-09-04 16:39:35,1409353
2025-09-04 16:39:35,1409530
2025-09-04 16:39:35,1409709
2025-09-04 16:39:35,1409903
2025-09-04 16:39:35,1410055
2025-09-04 16:39:35,1409993
2025-09-04 16:39:35,1410089
2025-09-04 16:39:35,1410024
2025-09-04 16:39:35,1410103
2025-09-04 16:39:35,1409991
2025-09-04 16:39:35,1409814
2025-09-04 16:39:35,1409763
2025-09-04 16:39:35,1409677
2025-09-04 16:39:35,1409618
2025-09-04 16:39:35,1409602
2025-09-04 16:39:35,1409477
2025-09-04 16:39:35,1409480
2025-09-04 16:39:35,1409449
2025-09-04 16:39:35,1409507
2025-09-04 16:39:35,1409508
2025-09-04 16:39:35,1409579
2025-09-04 16:39:35,1409773
2025-09-04 16:39:35,1409850
2025-09-04 16:39:35,1410022
2025-09-04 16:39:35,1410078
2025-09-04 16:39:35,1410284
2025-09-04 16:39:35,1410296
2025-09-04 16:39:35,1410434
2025-09-04 16:39:35,1410586
2025-09-04 16:39:35,1410870
2025-09-04 16:39:35,1411017
2025-09-04 16:39:35,1411170
2025-09-04 16:39:35,1411302
2025-09-04 16:39:35,1411524
2025-09-04 16:39:35,1411633
2025-09-04 16:39:35,1411733
2025-09-04 16:39:35,1411916
2025-09-04 16:39:35,1411969
2025-09-04 16:39:35,1412148
2025-09-04 16:39:35,1412298
2025-09-04 16:39:35,1412502
2025-09-04 16:39:35,1412493
2025-09-04 16:39:35,1412684
2025-09-04 16:39:35,1412812
2025-09-04 16:39:35,1412993
2025-09-04 16:39:35,1413094
2025-09-04 16:39:35,1413169
2025-09-04 16:39:35,1413406
2025-09-04 16:39:35,1413481
2025-09-04 16:39:35,1413599
2025-09-04 16:39:35,1413679
2025-09-04 16:39:35,1413952
2025-09-04 16:39:35,1413986
2025-09-04 16:39:35,1414226
2025-09-04 16:39:35,1414430
2025-09-04 16:39:35,1414557
2025-09-04 16:39:35,1414739
2025-09-04 16:39:35,1414899
2025-09-04 16:39:35,1415108
2025-09-04 16:39:35,1415240
2025-09-04 16:39:35,1415425
2025-09-04 16:39:35,1415608
2025-09-04 16:39:35,1415669
2025-09-04 16:39:35,1415657
2025-09-04 16:39:35,1415443
2025-09-04 16:39:35,1414553
2025-09-04 16:39:35,1413454
2025-09-04 16:39:35,1412296
2025-09-04 16:39:35,1411332
2025-09-04 16:39:35,1410383
2025-09-04 16:39:35,1409527
2025-09-04 16:39:35,1408826
2025-09-04 16:39:35,1408338
2025-09-04 16:39:35,1407762
2025-09-04 16:39:35,1407410
2025-09-04 16:39:35,1407137
2025-09-04 16:39:35,1406959
2025-09-04 16:39:35,1406799
2025-09-04 16:39:35,1406727
2025-09-04 16:39:35,1406753
2025-09-04 16:39:35,1406680
2025-09-04 16:39:35,1406742
2025-09-04 16:39:35,1406659
2025-09-04 16:39:35,1406684
2025-09-04 16:39:35,1406572
2025-09-04 16:39:35,1406770
2025-09-04 16:39:35,1406631
2025-09-04 16:39:35,1406819
2025-09-04 16:39:35,1406950
2025-09-04 16:39:35,1407020
2025-09-04 16:39:35,1407063
2025-09-04 16:39:35,1407112
2025-09-04 16:39:35,1407197
2025-09-04 16:39:35,1407115
2025-09-04 16:39:36,1407134
2025-09-04 16:39:36,1406937
2025-09-04 16:39:36,1406918
2025-09-04 16:39:36,1406835
2025-09-04 16:39:36,1406697
2025-09-04 16:39:36,1406735
2025-09-04 16:39:36,1406601
2025-09-04 16:39:36,1406578
2025-09-04 16:39:36,1406457
2025-09-04 16:39:36,1406479
2025-09-04 16:39:36,1406497
2025-09-04 16:39:36,1406667
2025-09-04 16:39:36,1406735
2025-09-04 16:39:36,1406818
2025-09-04 16:39:36,1407004
2025-09-04 16:39:36,1407081
2025-09-04 16:39:36,1407277
2025-09-04 16:39:36,1407430
2025-09-04 16:39:36,1407593
2025-09-04 16:39:36,1407643
2025-09-04 16:39:36,1407875
2025-09-04 16:39:36,1408027
2025-09-04 16:39:36,1408182
2025-09-04 16:39:36,1408234
2025-09-04 16:39:36,1408479
2025-09-04 16:39:36,1408733
2025-09-04 16:39:36,1408773
2025-09-04 16:39:36,1408889
2025-09-04 16:39:36,1409036
2025-09-04 16:39:36,1409181
2025-09-04 16:39:36,1409343
2025-09-04 16:39:36,1409466
2025-09-04 16:39:36,1409609
2025-09-04 16:39:36,1409682
2025-09-04 16:39:36,1409841
2025-09-04 16:39:36,1410044
2025-09-04 16:39:36,1410116
2025-09-04 16:39:36,1410321
2025-09-04 16:39:36,1410431
2025-09-04 16:39:36,1410638
2025-09-04 16:39:36,1410694
2025-09-04 16:39:36,1410873
2025-09-04 16:39:36,1411031
2025-09-04 16:39:36,1411293
2025-09-04 16:39:36,1411465
2025-09-04 16:39:36,1411713
2025-09-04 16:39:36,1411854
2025-09-04 16:39:36,1412040
2025-09-04 16:39:36,1412274
2025-09-04 16:39:36,1412500
2025-09-04 16:39:36,1412622
2025-09-04 16:39:36,1412932
2025-09-04 16:39:36,1413054
2025-09-04 16:39:36,1413371
2025-09-04 16:39:36,1413381
2025-09-04 16:39:36,1413087
2025-09-04 16:39:36,1412436
2025-09-04 16:39:36,1411497
2025-09-04 16:39:36,1410268
2025-09-04 16:39:36,1409199
2025-09-04 16:39:36,1408278
2025-09-04 16:39:36,1407553
2025-09-04 16:39:36,1406785
2025-09-04 16:39:36,1406290
2025-09-04 16:39:36,1405893
2025-09-04 16:39:36,1405480
2025-09-04 16:39:36,1405168
2025-09-04 16:39:36,1405057
2025-09-04 16:39:36,1404896
2025-09-04 16:39:36,1404869
2025-09-04 16:39:36,1404786
2025-09-04 16:39:36,1404780
2025-09-04 16:39:36,1404841
2025-09-04 16:39:36,1404894
2025-09-04 16:39:36,1404871
2025-09-04 16:39:36,1404926
2025-09-04 16:39:36,1405057
2025-09-04 16:39:36,1405191
2025-09-04 16:39:36,1405265
2025-09-04 16:39:36,1405446
2025-09-04 16:39:36,1405641
2025-09-04 16:39:36,1405751
2025-09-04 16:39:36,1405841
2025-09-04 16:39:36,1405891
2025-09-04 16:39:36,1405886
2025-09-04 16:39:36,1405943
2025-09-04 16:39:36,1405775
2025-09-04 16:39:36,1405705
2025-09-04 16:39:36,1405732
2025-09-04 16:39:36,1405559
2025-09-04 16:39:36,1405543
2025-09-04 16:39:36,1405441
2025-09-04 16:39:36,1405420
2025-09-04 16:39:36,1405494
2025-09-04 16:39:36,1405448
2025-09-04 16:39:36,1405627
2025-09-04 16:39:36,1405662
2025-09-04 16:39:36,1405791
2025-09-04 16:39:36,1405900
2025-09-04 16:39:36,1406008
2025-09-04 16:39:37,1406182
2025-09-04 16:39:37,1406473
2025-09-04 16:39:37,1406547
2025-09-04 16:39:37,1406697
2025-09-04 16:39:37,1406871
2025-09-04 16:39:37,1407137
2025-09-04 16:39:37,1407349
2025-09-04 16:39:37,1407465
2025-09-04 16:39:37,1407633
2025-09-04 16:39:37,1407850
2025-09-04 16:39:37,1408035
2025-09-04 16:39:37,1408123
2025-09-04 16:39:37,1408269
2025-09-04 16:39:37,1408569
2025-09-04 16:39:37,1408578
2025-09-04 16:39:37,1408638
2025-09-04 16:39:37,1408837
2025-09-04 16:39:37,1408870
2025-09-04 16:39:37,1409110
2025-09-04 16:39:37,1409177
2025-09-04 16:39:37,1409209
2025-09-04 16:39:37,1409410
2025-09-04 16:39:37,1409512
2025-09-04 16:39:37,1409666
2025-09-04 16:39:37,1409820
2025-09-04 16:39:37,1410015
2025-09-04 16:39:37,1410117
2025-09-04 16:39:37,1410358
2025-09-04 16:39:37,1410644
2025-09-04 16:39:37,1410679
2025-09-04 16:39:37,1410898
2025-09-04 16:39:37,1411119
2025-09-04 16:39:37,1411271
2025-09-04 16:39:37,1411442
2025-09-04 16:39:37,1411706
2025-09-04 16:39:37,1411734
2025-09-04 16:39:37,1411530
2025-09-04 16:39:37,1410894
2025-09-04 16:39:37,1409881
2025-09-04 16:39:37,1408851
2025-09-04 16:39:37,1408014
2025-09-04 16:39:37,1407124
2025-09-04 16:39:37,1406376
2025-09-04 16:39:37,1405751
2025-09-04 16:39:37,1405258
2025-09-04 16:39:37,1404783
2025-09-04 16:39:37,1404495
2025-09-04 16:39:37,1404266
2025-09-04 16:39:37,1404081
2025-09-04 16:39:37,1404013
2025-09-04 16:39:37,1403889
2025-09-04 16:39:37,1404121
2025-09-04 16:39:37,1404117
2025-09-04 16:39:37,1404187
2025-09-04 16:39:37,1404210
2025-09-04 16:39:37,1404273
2025-09-04 16:39:37,1404394
2025-09-04 16:39:37,1404485
2025-09-04 16:39:37,1404732
2025-09-04 16:39:37,1405015
2025-09-04 16:39:37,1405126
2025-09-04 16:39:37,1405269
2025-09-04 16:39:37,1405383
2025-09-04 16:39:37,1405544
2025-09-04 16:39:37,1405526
2025-09-04 16:39:37,1405534
2025-09-04 16:39:37,1405588
2025-09-04 16:39:37,1405400
2025-09-04 16:39:37,1405368
2025-09-04 16:39:37,1405293
2025-09-04 16:39:37,1405220
2025-09-04 16:39:37,1405132
2025-09-04 16:39:37,1405051
2025-09-04 16:39:37,1405043
2025-09-04 16:39:37,1405063
2025-09-04 16:39:37,1405092
2025-09-04 16:39:37,1405166
2025-09-04 16:39:37,1405313
2025-09-04 16:39:37,1405421
2025-09-04 16:39:37,1405448
2025-09-04 16:39:37,1405690
2025-09-04 16:39:37,1405879
2025-09-04 16:39:37,1406066
2025-09-04 16:39:37,1406158
2025-09-04 16:39:37,1406369
2025-09-04 16:39:37,1406510
2025-09-04 16:39:37,1406810
2025-09-04 16:39:37,1406890
2025-09-04 16:39:37,1407009
2025-09-04 16:39:37,1407170
2025-09-04 16:39:37,1407366
2025-09-04 16:39:37,1407469
2025-09-04 16:39:37,1407657
2025-09-04 16:39:37,1407754
2025-09-04 16:39:37,1407775
2025-09-04 16:39:37,1407891
2025-09-04 16:39:37,1408088
2025-09-04 16:39:37,1408246
2025-09-04 16:39:37,1408259
2025-09-04 16:39:37,1408417
2025-09-04 16:39:38,1408445
2025-09-04 16:39:38,1408590
2025-09-04 16:39:38,1408654
2025-09-04 16:39:38,1408864
2025-09-04 16:39:38,1408940
2025-09-04 16:39:38,1409129
2025-09-04 16:39:38,1409284
2025-09-04 16:39:38,1409436
2025-09-04 16:39:38,1409608
2025-09-04 16:39:38,1409748
2025-09-04 16:39:38,1409944
2025-09-04 16:39:38,1410129
2025-09-04 16:39:38,1410193
2025-09-04 16:39:38,1410424
2025-09-04 16:39:38,1410502
2025-09-04 16:39:38,1410491
2025-09-04 16:39:38,1410428
2025-09-04 16:39:38,1409802
2025-09-04 16:39:38,1408776
2025-09-04 16:39:38,1407627
2025-09-04 16:39:38,1406582
2025-09-04 16:39:38,1405558
2025-09-04 16:39:38,1404827
2025-09-04 16:39:38,1404001
2025-09-04 16:39:38,1403480
2025-09-04 16:39:38,1402920
2025-09-04 16:39:38,1402481
2025-09-04 16:39:38,1402118
2025-09-04 16:39:38,1402031
2025-09-04 16:39:38,1401754
2025-09-04 16:39:38,1401672
2025-09-04 16:39:38,1401635
2025-09-04 16:39:38,1401610
2025-09-04 16:39:38,1401656
2025-09-04 16:39:38,1401612
2025-09-04 16:39:38,1401598
2025-09-04 16:39:38,1401548
2025-09-04 16:39:38,1401560
2025-09-04 16:39:38,1401596
2025-09-04 16:39:38,1401726
2025-09-04 16:39:38,1401805
2025-09-04 16:39:38,1402006
2025-09-04 16:39:38,1402106
2025-09-04 16:39:38,1402167
2025-09-04 16:39:38,1402096
2025-09-04 16:39:38,1402116
2025-09-04 16:39:38,1402083
2025-09-04 16:39:38,1402073
2025-09-04 16:39:38,1401953
2025-09-04 16:39:38,1401830
2025-09-04 16:39:38,1401703
2025-09-04 16:39:38,1401643
2025-09-04 16:39:38,1401579
2025-09-04 16:39:38,1401520
2025-09-04 16:39:38,1401537
2025-09-04 16:39:38,1401506
2025-09-04 16:39:38,1401619
2025-09-04 16:39:38,1401764
2025-09-04 16:39:38,1401802
2025-09-04 16:39:38,1401946
2025-09-04 16:39:38,1401989
2025-09-04 16:39:38,1402304
2025-09-04 16:39:38,1402282
2025-09-04 16:39:38,1402467
2025-09-04 16:39:38,1402646
2025-09-04 16:39:38,1402822
2025-09-04 16:39:38,1402979
2025-09-04 16:39:38,1403239
2025-09-04 16:39:38,1403271
2025-09-04 16:39:38,1403509
2025-09-04 16:39:38,1403622
2025-09-04 16:39:38,1403749
2025-09-04 16:39:38,1403887
2025-09-04 16:39:38,1404099
2025-09-04 16:39:38,1404193
2025-09-04 16:39:38,1404307
2025-09-04 16:39:38,1404429
2025-09-04 16:39:38,1404579
2025-09-04 16:39:38,1404703
2025-09-04 16:39:38,1404760
2025-09-04 16:39:38,1404852
2025-09-04 16:39:38,1405080
2025-09-04 16:39:38,1405293
2025-09-04 16:39:38,1405373
2025-09-04 16:39:38,1405479
2025-09-04 16:39:38,1405672
2025-09-04 16:39:38,1405748
2025-09-04 16:39:38,1405951
2025-09-04 16:39:38,1406155
2025-09-04 16:39:38,1406302
2025-09-04 16:39:38,1406455
2025-09-04 16:39:38,1406671
2025-09-04 16:39:38,1406871
2025-09-04 16:39:38,1406990
2025-09-04 16:39:38,1407142
2025-09-04 16:39:38,1407298
2025-09-04 16:39:38,1407497
2025-09-04 16:39:38,1407713
2025-09-04 16:39:38,1407946
2025-09-04 16:39:38,1408147
2025-09-04 16:39:39,1408236
2025-09-04 16:39:39,1408290
2025-09-04 16:39:39,1408289
2025-09-04 16:39:39,1407755
2025-09-04 16:39:39,1406744
2025-09-04 16:39:39,1405572
2025-09-04 16:39:39,1404499
2025-09-04 16:39:39,1403522
2025-09-04 16:39:39,1402651
2025-09-04 16:39:39,1401893
2025-09-04 16:39:39,1401200
2025-09-04 16:39:39,1400570
2025-09-04 16:39:39,1399977
2025-09-04 16:39:39,1399749
2025-09-04 16:39:39,1399495
2025-09-04 16:39:39,1399344
2025-09-04 16:39:39,1399179
2025-09-04 16:39:39,1399104
2025-09-04 16:39:39,1398985
2025-09-04 16:39:39,1398957
2025-09-04 16:39:39,1398898
2025-09-04 16:39:39,1398865
2025-09-04 16:39:39,1398815
2025-09-04 16:39:39,1398701
2025-09-04 16:39:39,1398647
2025-09-04 16:39:39,1398747
2025-09-04 16:39:39,1398737
2025-09-04 16:39:39,1398880
2025-09-04 16:39:39,1399021
2025-09-04 16:39:39,1398990
2025-09-04 16:39:39,1399000
2025-09-04 16:39:39,1398949
2025-09-04 16:39:39,1399168
2025-09-04 16:39:39,1399064
2025-09-04 16:39:39,1398972
2025-09-04 16:39:39,1399035
2025-09-04 16:39:39,1398936
2025-09-04 16:39:39,1398974
2025-09-04 16:39:39,1398891
2025-09-04 16:39:39,1398872
2025-09-04 16:39:39,1398870
2025-09-04 16:39:39,1398893
2025-09-04 16:39:39,1398903
2025-09-04 16:39:39,1398942
2025-09-04 16:39:39,1399144
2025-09-04 16:39:39,1399180
2025-09-04 16:39:39,1399276
2025-09-04 16:39:39,1399322
2025-09-04 16:39:39,1399450
2025-09-04 16:39:39,1399675
2025-09-04 16:39:39,1399771
2025-09-04 16:39:39,1399947
2025-09-04 16:39:39,1400135
2025-09-04 16:39:39,1400403
2025-09-04 16:39:39,1400471
2025-09-04 16:39:39,1400679
2025-09-04 16:39:39,1400845
2025-09-04 16:39:39,1401088
2025-09-04 16:39:39,1401205
2025-09-04 16:39:39,1401409
2025-09-04 16:39:39,1401479
2025-09-04 16:39:39,1401560
2025-09-04 16:39:39,1401841
2025-09-04 16:39:39,1401991
2025-09-04 16:39:39,1402090
2025-09-04 16:39:39,1402200
2025-09-04 16:39:39,1402470
2025-09-04 16:39:39,1402543
2025-09-04 16:39:39,1402728
2025-09-04 16:39:39,1402820
2025-09-04 16:39:39,1402930
2025-09-04 16:39:39,1403163
2025-09-04 16:39:39,1403310
2025-09-04 16:39:39,1403498
2025-09-04 16:39:39,1403599
2025-09-04 16:39:39,1403771
2025-09-04 16:39:39,1403979
2025-09-04 16:39:39,1404138
2025-09-04 16:39:39,1404253
2025-09-04 16:39:39,1404476
2025-09-04 16:39:39,1404724
2025-09-04 16:39:39,1404844
2025-09-04 16:39:39,1405015
2025-09-04 16:39:39,1405385
2025-09-04 16:39:39,1405440
2025-09-04 16:39:39,1405649
2025-09-04 16:39:39,1405861
2025-09-04 16:39:39,1406119
2025-09-04 16:39:39,1406270
2025-09-04 16:39:39,1406387
2025-09-04 16:39:39,1406611
2025-09-04 16:39:39,1406696
2025-09-04 16:39:39,1406707
2025-09-04 16:39:39,1406132
2025-09-04 16:39:39,1405261
2025-09-04 16:39:39,1404214
2025-09-04 16:39:39,1403029
2025-09-04 16:39:39,1402068
2025-09-04 16:39:39,1401304
2025-09-04 16:39:39,1400555
2025-09-04 16:39:40,1399905
2025-09-04 16:39:40,1399384
2025-09-04 16:39:40,1398950
2025-09-04 16:39:40,1398626
2025-09-04 16:39:40,1398447
2025-09-04 16:39:40,1398241
2025-09-04 16:39:40,1398292
2025-09-04 16:39:40,1398239
2025-09-04 16:39:40,1398235
2025-09-04 16:39:40,1398227
2025-09-04 16:39:40,1398212
2025-09-04 16:39:40,1398254
2025-09-04 16:39:40,1398298
2025-09-04 16:39:40,1398287
2025-09-04 16:39:40,1398291
2025-09-04 16:39:40,1398351
2025-09-04 16:39:40,1398568
2025-09-04 16:39:40,1398622
2025-09-04 16:39:40,1398852
2025-09-04 16:39:40,1398773
2025-09-04 16:39:40,1398859
2025-09-04 16:39:40,1398896
2025-09-04 16:39:40,1398927
2025-09-04 16:39:40,1398875
2025-09-04 16:39:40,1398834
2025-09-04 16:39:40,1398843
2025-09-04 16:39:40,1398729
2025-09-04 16:39:40,1398791
2025-09-04 16:39:40,1398774
2025-09-04 16:39:40,1398751
2025-09-04 16:39:40,1398777
2025-09-04 16:39:40,1398855
2025-09-04 16:39:40,1398934
2025-09-04 16:39:40,1399002
2025-09-04 16:39:40,1399151
2025-09-04 16:39:40,1399313
2025-09-04 16:39:40,1399448
2025-09-04 16:39:40,1399554
2025-09-04 16:39:40,1399779
2025-09-04 16:39:40,1400053
2025-09-04 16:39:40,1400254
2025-09-04 16:39:40,1400398
2025-09-04 16:39:40,1400520
2025-09-04 16:39:40,1400795
2025-09-04 16:39:40,1400946
2025-09-04 16:39:40,1401098
2025-09-04 16:39:40,1401303
2025-09-04 16:39:40,1401485
2025-09-04 16:39:40,1401611
2025-09-04 16:39:40,1401818
2025-09-04 16:39:40,1401930
2025-09-04 16:39:40,1402140
2025-09-04 16:39:40,1402357
2025-09-04 16:39:40,1402464
2025-09-04 16:39:40,1402620
2025-09-04 16:39:40,1402806
2025-09-04 16:39:40,1402956
2025-09-04 16:39:40,1403146
2025-09-04 16:39:40,1403272
2025-09-04 16:39:40,1403451
2025-09-04 16:39:40,1403613
2025-09-04 16:39:40,1403773
2025-09-04 16:39:40,1404053
2025-09-04 16:39:40,1404082
2025-09-04 16:39:40,1404324
2025-09-04 16:39:40,1404568
2025-09-04 16:39:40,1404758
2025-09-04 16:39:40,1404977
2025-09-04 16:39:40,1405053
2025-09-04 16:39:40,1405361
2025-09-04 16:39:40,1405499
2025-09-04 16:39:40,1405832
2025-09-04 16:39:40,1405983
2025-09-04 16:39:40,1406180
2025-09-04 16:39:40,1406425
2025-09-04 16:39:40,1406604
2025-09-04 16:39:40,1406938
2025-09-04 16:39:40,1407190
2025-09-04 16:39:40,1407391
2025-09-04 16:39:40,1407612
2025-09-04 16:39:40,1407931
2025-09-04 16:39:40,1408074
2025-09-04 16:39:40,1408291
2025-09-04 16:39:40,1407945
2025-09-04 16:39:40,1407382
2025-09-04 16:39:40,1406304
2025-09-04 16:39:40,1405242
2025-09-04 16:39:40,1404200
2025-09-04 16:39:40,1403226
2025-09-04 16:39:40,1402490
2025-09-04 16:39:40,1401876
2025-09-04 16:39:40,1401303
2025-09-04 16:39:40,1400846
2025-09-04 16:39:40,1400678
2025-09-04 16:39:40,1400385
2025-09-04 16:39:40,1400246
2025-09-04 16:39:40,1400297
2025-09-04 16:39:40,1400231
2025-09-04 16:39:40,1400352
2025-09-04 16:39:40,1400318
2025-09-04 16:39:41,1400550
2025-09-04 16:39:41,1400512
2025-09-04 16:39:41,1400667
2025-09-04 16:39:41,1400735
2025-09-04 16:39:41,1400803
2025-09-04 16:39:41,1400861
2025-09-04 16:39:41,1401113
2025-09-04 16:39:41,1401305
2025-09-04 16:39:41,1401519
2025-09-04 16:39:41,1401548
2025-09-04 16:39:41,1401686
2025-09-04 16:39:41,1401701
2025-09-04 16:39:41,1401885
2025-09-04 16:39:41,1401781
2025-09-04 16:39:41,1401810
2025-09-04 16:39:41,1401724
2025-09-04 16:39:41,1401732
2025-09-04 16:39:41,1401654
2025-09-04 16:39:41,1401607
2025-09-04 16:39:41,1401572
2025-09-04 16:39:41,1401579
2025-09-04 16:39:41,1401567
2025-09-04 16:39:41,1401674
2025-09-04 16:39:41,1401809
2025-09-04 16:39:41,1401891
2025-09-04 16:39:41,1402088
2025-09-04 16:39:41,1402259
2025-09-04 16:39:41,1402319
2025-09-04 16:39:41,1402600
2025-09-04 16:39:41,1402801
2025-09-04 16:39:41,1403017
2025-09-04 16:39:41,1403203
2025-09-04 16:39:41,1403413
2025-09-04 16:39:41,1403607
2025-09-04 16:39:41,1403790
2025-09-04 16:39:41,1404051
2025-09-04 16:39:41,1404215
2025-09-04 16:39:41,1404489
2025-09-04 16:39:41,1404746
2025-09-04 16:39:41,1404962
2025-09-04 16:39:41,1405061
2025-09-04 16:39:41,1405373
2025-09-04 16:39:41,1405508
2025-09-04 16:39:41,1405715
2025-09-04 16:39:41,1405863
2025-09-04 16:39:41,1406061
2025-09-04 16:39:41,1406176
2025-09-04 16:39:41,1406407
2025-09-04 16:39:41,1406543
2025-09-04 16:39:41,1406803
2025-09-04 16:39:41,1406913
2025-09-04 16:39:41,1407152
2025-09-04 16:39:41,1407321
2025-09-04 16:39:41,1407383
2025-09-04 16:39:41,1407615
2025-09-04 16:39:41,1407770
2025-09-04 16:39:41,1408079
2025-09-04 16:39:41,1408298
2025-09-04 16:39:41,1408375
2025-09-04 16:39:41,1408587
2025-09-04 16:39:41,1408765
2025-09-04 16:39:41,1408999
2025-09-04 16:39:41,1409282
2025-09-04 16:39:30,1409428
2025-09-04 16:39:39,1409729
2025-09-04 16:39:41,1409834
2025-09-04 16:39:41,1410119
2025-09-04 16:39:41,1410277
2025-09-04 16:39:41,1410643
2025-09-04 16:39:41,1410767
2025-09-04 16:39:41,1410832
2025-09-04 16:39:41,1410874
2025-09-04 16:39:41,1410367
2025-09-04 16:39:41,1409461
2025-09-04 16:39:41,1408369
2025-09-04 16:39:41,1407313
2025-09-04 16:39:41,1406419
2025-09-04 16:39:41,1405647
2025-09-04 16:39:41,1405001
2025-09-04 16:39:41,1404505
2025-09-04 16:39:41,1404103
2025-09-04 16:39:41,1403851
2025-09-04 16:39:41,1403545
2025-09-04 16:39:41,1403572
2025-09-04 16:39:41,1403463
2025-09-04 16:39:41,1403529
2025-09-04 16:39:41,1403593
2025-09-04 16:39:41,1403640
2025-09-04 16:39:41,1403850
2025-09-04 16:39:41,1403976
2025-09-04 16:39:41,1404221
2025-09-04 16:39:41,1404290
2025-09-04 16:39:41,1404490
2025-09-04 16:39:41,1404680
2025-09-04 16:39:41,1404891
2025-09-04 16:39:41,1405155
2025-09-04 16:39:41,1405285
2025-09-04 16:39:41,1405449
2025-09-04 16:39:41,1405577
2025-09-04 16:39:42,1405612
2025-09-04 16:39:42,1405674
2025-09-04 16:39:42,1405668
2025-09-04 16:39:42,1405597
2025-09-04 16:39:42,1405477
2025-09-04 16:39:42,1405434
2025-09-04 16:39:42,1405386
2025-09-04 16:39:42,1405253
2025-09-04 16:39:42,1405220
2025-09-04 16:39:42,1405252
2025-09-04 16:39:42,1405251
2025-09-04 16:39:42,1405367
2025-09-04 16:39:42,1405419
2025-09-04 16:39:42,1405544
2025-09-04 16:39:42,1405607
2025-09-04 16:39:42,1405744
2025-09-04 16:39:42,1406065
2025-09-04 16:39:42,1406155
2025-09-04 16:39:42,1406343
2025-09-04 16:39:42,1406606
2025-09-04 16:39:42,1406750
2025-09-04 16:39:42,1406936
2025-09-04 16:39:42,1407072
2025-09-04 16:39:42,1407281
2025-09-04 16:39:42,1407459
2025-09-04 16:39:42,1407679
2025-09-04 16:39:42,1407865
2025-09-04 16:39:42,1407969
2025-09-04 16:39:42,1408185
2025-09-04 16:39:42,1408410
2025-09-04 16:39:42,1408538
2025-09-04 16:39:42,1408656
2025-09-04 16:39:42,1408835
2025-09-04 16:39:42,1408954
2025-09-04 16:39:42,1409132
2025-09-04 16:39:42,1409239
2025-09-04 16:39:42,1409359
2025-09-04 16:39:42,1409574
2025-09-04 16:39:42,1409722
2025-09-04 16:39:42,1409819
2025-09-04 16:39:42,1410018
2025-09-04 16:39:42,1410199
2025-09-04 16:39:42,1410367
2025-09-04 16:39:42,1410575
2025-09-04 16:39:42,1410647
2025-09-04 16:39:42,1410831
2025-09-04 16:39:42,1411028
2025-09-04 16:39:42,1411165
2025-09-04 16:39:42,1411396
2025-09-04 16:39:42,1411609
2025-09-04 16:39:42,1411771
2025-09-04 16:39:42,1411906
2025-09-04 16:39:42,1412105
2025-09-04 16:39:42,1412296
2025-09-04 16:39:42,1412485
2025-09-04 16:39:42,1412829
2025-09-04 16:39:42,1412899
2025-09-04 16:39:42,1413056
2025-09-04 16:39:42,1413330
2025-09-04 16:39:42,1413309
2025-09-04 16:39:42,1412938
2025-09-04 16:39:42,1412154
2025-09-04 16:39:42,1410870
2025-09-04 16:39:42,1409657
2025-09-04 16:39:42,1408669
2025-09-04 16:39:42,1407685
2025-09-04 16:39:42,1406921
2025-09-04 16:39:42,1406216
2025-09-04 16:39:42,1405713
2025-09-04 16:39:42,1405273
2025-09-04 16:39:42,1404860
2025-09-04 16:39:42,1404584
2025-09-04 16:39:42,1404513
2025-09-04 16:39:42,1404507
2025-09-04 16:39:42,1404443
2025-09-04 16:39:42,1404512
2025-09-04 16:39:42,1404535
2025-09-04 16:39:42,1404600
2025-09-04 16:39:42,1404577
2025-09-04 16:39:42,1404667
2025-09-04 16:39:42,1404736
2025-09-04 16:39:42,1404783
2025-09-04 16:39:42,1404922
2025-09-04 16:39:42,1405048
2025-09-04 16:39:42,1405209
2025-09-04 16:39:42,1405261
2025-09-04 16:39:42,1405419
2025-09-04 16:39:42,1405499
2025-09-04 16:39:42,1405609
2025-09-04 16:39:42,1405659
2025-09-04 16:39:42,1405551
2025-09-04 16:39:42,1405608
2025-09-04 16:39:42,1405553
2025-09-04 16:39:42,1405438
2025-09-04 16:39:42,1405471
2025-09-04 16:39:42,1405357
2025-09-04 16:39:42,1405337
2025-09-04 16:39:42,1405274
2025-09-04 16:39:42,1405329
2025-09-04 16:39:42,1405315
2025-09-04 16:39:43,1405420
2025-09-04 16:39:43,1405457
2025-09-04 16:39:43,1405655
2025-09-04 16:39:43,1405783
2025-09-04 16:39:43,1405927
2025-09-04 16:39:43,1406057
2025-09-04 16:39:43,1406150
2025-09-04 16:39:43,1406341
2025-09-04 16:39:43,1406517
2025-09-04 16:39:43,1406802
2025-09-04 16:39:43,1406999
2025-09-04 16:39:43,1407122
2025-09-04 16:39:43,1407305
2025-09-04 16:39:43,1407470
2025-09-04 16:39:43,1407716
2025-09-04 16:39:43,1407863
2025-09-04 16:39:43,1408062
2025-09-04 16:39:43,1408057
2025-09-04 16:39:43,1408284
2025-09-04 16:39:43,1408517
2025-09-04 16:39:43,1408524
2025-09-04 16:39:43,1408834
2025-09-04 16:39:43,1408993
2025-09-04 16:39:43,1409125
2025-09-04 16:39:43,1409309
2025-09-04 16:39:43,1409348
2025-09-04 16:39:43,1409552
2025-09-04 16:39:43,1409659
2025-09-04 16:39:43,1409895
2025-09-04 16:39:43,1409936
2025-09-04 16:39:43,1410183
2025-09-04 16:39:43,1410388
2025-09-04 16:39:43,1410485
2025-09-04 16:39:43,1410568
2025-09-04 16:39:43,1410778
2025-09-04 16:39:43,1410971
2025-09-04 16:39:43,1411031
2025-09-04 16:39:43,1411264
2025-09-04 16:39:43,1411526
2025-09-04 16:39:43,1411616
2025-09-04 16:39:43,1411896
2025-09-04 16:39:43,1412001
2025-09-04 16:39:43,1412304
2025-09-04 16:39:43,1412408
2025-09-04 16:39:43,1412592
2025-09-04 16:39:43,1412869
2025-09-04 16:39:43,1413101
2025-09-04 16:39:43,1413267
2025-09-04 16:39:43,1413337
2025-09-04 16:39:43,1413432
2025-09-04 16:39:43,1412983
2025-09-04 16:39:43,1412170
2025-09-04 16:39:43,1410925
2025-09-04 16:39:43,1409622
2025-09-04 16:39:43,1408558
2025-09-04 16:39:43,1407650
2025-09-04 16:39:43,1406957
2025-09-04 16:39:43,1406265
2025-09-04 16:39:43,1405656
2025-09-04 16:39:43,1405255
2025-09-04 16:39:43,1404941
2025-09-04 16:39:43,1404623
2025-09-04 16:39:43,1404618
2025-09-04 16:39:43,1404458
2025-09-04 16:39:43,1404443
2025-09-04 16:39:43,1404632
2025-09-04 16:39:43,1404541
2025-09-04 16:39:43,1404591
2025-09-04 16:39:43,1404740
2025-09-04 16:39:43,1404769
2025-09-04 16:39:43,1404765
2025-09-04 16:39:43,1404886
2025-09-04 16:39:43,1405010
2025-09-04 16:39:43,1405168
2025-09-04 16:39:43,1405368
2025-09-04 16:39:43,1405524
2025-09-04 16:39:43,1405485
2025-09-04 16:39:43,1405580
2025-09-04 16:39:43,1405687
2025-09-04 16:39:43,1405671
2025-09-04 16:39:43,1405541
2025-09-04 16:39:43,1405483
2025-09-04 16:39:43,1405490
2025-09-04 16:39:43,1405431
2025-09-04 16:39:43,1405334
2025-09-04 16:39:43,1405285
2025-09-04 16:39:43,1405221
2025-09-04 16:39:43,1405274
2025-09-04 16:39:43,1405284
2025-09-04 16:39:43,1405390
2025-09-04 16:39:43,1405478
2025-09-04 16:39:43,1405548
2025-09-04 16:39:43,1405689
2025-09-04 16:39:43,1405939
2025-09-04 16:39:43,1406005
2025-09-04 16:39:43,1406159
2025-09-04 16:39:43,1406290
2025-09-04 16:39:43,1406598
2025-09-04 16:39:43,1406650
2025-09-04 16:39:43,1406937
2025-09-04 16:39:44,1407080
2025-09-04 16:39:44,1407315
2025-09-04 16:39:44,1407570
2025-09-04 16:39:44,1407655
2025-09-04 16:39:44,1407864
2025-09-04 16:39:44,1408004
2025-09-04 16:39:44,1408124
2025-09-04 16:39:44,1408384
2025-09-04 16:39:44,1408432
2025-09-04 16:39:44,1408599
2025-09-04 16:39:44,1408776
2025-09-04 16:39:44,1408907
2025-09-04 16:39:44,1409124
2025-09-04 16:39:44,1409231
2025-09-04 16:39:44,1409469
2025-09-04 16:39:44,1409558
2025-09-04 16:39:44,1409622
2025-09-04 16:39:44,1409820
2025-09-04 16:39:44,1409987
2025-09-04 16:39:44,1410054
2025-09-04 16:39:44,1410326
2025-09-04 16:39:44,1410464
2025-09-04 16:39:44,1410635
2025-09-04 16:39:44,1410796
2025-09-04 16:39:44,1410964
2025-09-04 16:39:44,1411137
2025-09-04 16:39:44,1411340
2025-09-04 16:39:44,1411498
2025-09-04 16:39:44,1411707
2025-09-04 16:39:44,1411730
2025-09-04 16:39:44,1411926
2025-09-04 16:39:44,1412211
2025-09-04 16:39:44,1412391
2025-09-04 16:39:44,1412651
2025-09-04 16:39:44,1412881
2025-09-04 16:39:44,1413038
2025-09-04 16:39:44,1413208
2025-09-04 16:39:44,1413330
2025-09-04 16:39:44,1413514
2025-09-04 16:39:44,1413504
2025-09-04 16:39:44,1413034
2025-09-04 16:39:44,1411926
2025-09-04 16:39:44,1410734
2025-09-04 16:39:44,1409538
2025-09-04 16:39:44,1408486
2025-09-04 16:39:44,1407567
2025-09-04 16:39:44,1406778
2025-09-04 16:39:44,1406148
2025-09-04 16:39:44,1405625
2025-09-04 16:39:44,1405312
2025-09-04 16:39:44,1404939
2025-09-04 16:39:44,1404788
2025-09-04 16:39:44,1404677
2025-09-04 16:39:44,1404600
2025-09-04 16:39:44,1404459
2025-09-04 16:39:44,1404658
2025-09-04 16:39:44,1404710
2025-09-04 16:39:44,1404764
2025-09-04 16:39:44,1404873
2025-09-04 16:39:44,1404918
2025-09-04 16:39:44,1404989
2025-09-04 16:39:44,1405116
2025-09-04 16:39:44,1405246
2025-09-04 16:39:44,1405353
2025-09-04 16:39:44,1405626
2025-09-04 16:39:44,1405820
2025-09-04 16:39:44,1405807
2025-09-04 16:39:44,1405935
2025-09-04 16:39:44,1405900
2025-09-04 16:39:44,1405880
2025-09-04 16:39:44,1405928
2025-09-04 16:39:44,1405881
2025-09-04 16:39:44,1405841
2025-09-04 16:39:44,1405648
2025-09-04 16:39:44,1405667
2025-09-04 16:39:44,1405575
2025-09-04 16:39:44,1405607
2025-09-04 16:39:44,1405544
2025-09-04 16:39:44,1405500
2025-09-04 16:39:44,1405463
2025-09-04 16:39:44,1405622
2025-09-04 16:39:44,1405650
2025-09-04 16:39:44,1405902
2025-09-04 16:39:44,1405959
2025-09-04 16:39:44,1406161
2025-09-04 16:39:44,1406285
2025-09-04 16:39:44,1406454
2025-09-04 16:39:44,1406645
2025-09-04 16:39:44,1406836
2025-09-04 16:39:44,1406979
2025-09-04 16:39:44,1407186
2025-09-04 16:39:44,1407432
2025-09-04 16:39:44,1407569
2025-09-04 16:39:44,1407793
2025-09-04 16:39:44,1407944
2025-09-04 16:39:44,1408106
2025-09-04 16:39:44,1408381
2025-09-04 16:39:44,1408539
2025-09-04 16:39:44,1408698
2025-09-04 16:39:45,1408927
2025-09-04 16:39:45,1408967
2025-09-04 16:39:45,1409081
2025-09-04 16:39:45,1409263
2025-09-04 16:39:45,1409417
2025-09-04 16:39:45,1409544
2025-09-04 16:39:45,1409764
2025-09-04 16:39:45,1409916
2025-09-04 16:39:45,1410100
2025-09-04 16:39:45,1410262
2025-09-04 16:39:45,1410428
2025-09-04 16:39:45,1410609
2025-09-04 16:39:45,1410775
2025-09-04 16:39:45,1411049
2025-09-04 16:39:45,1411089
2025-09-04 16:39:45,1411345
2025-09-04 16:39:45,1411497
2025-09-04 16:39:45,1411753
2025-09-04 16:39:45,1411968
2025-09-04 16:39:45,1412053
2025-09-04 16:39:45,1412399
2025-09-04 16:39:45,1412600
2025-09-04 16:39:45,1412769
2025-09-04 16:39:45,1413004
2025-09-04 16:39:45,1413238
2025-09-04 16:39:45,1413430
2025-09-04 16:39:45,1413706
2025-09-04 16:39:45,1413863
2025-09-04 16:39:45,1414209
2025-09-04 16:39:45,1414273
2025-09-04 16:39:45,1414115
2025-09-04 16:39:45,1413554
2025-09-04 16:39:45,1412401
2025-09-04 16:39:45,1411107
2025-09-04 16:39:45,1409890
2025-09-04 16:39:45,1408830
2025-09-04 16:39:45,1407947
2025-09-04 16:39:45,1407263
2025-09-04 16:39:45,1406723
2025-09-04 16:39:45,1406218
2025-09-04 16:39:45,1405828
2025-09-04 16:39:45,1405609
2025-09-04 16:39:45,1405406
2025-09-04 16:39:45,1405273
2025-09-04 16:39:45,1405327
2025-09-04 16:39:45,1405409
2025-09-04 16:39:45,1405394
2025-09-04 16:39:45,1405486
2025-09-04 16:39:45,1405672
2025-09-04 16:39:45,1405707
2025-09-04 16:39:45,1405829
2025-09-04 16:39:45,1405892
2025-09-04 16:39:45,1406113
2025-09-04 16:39:45,1406349
2025-09-04 16:39:45,1406558
2025-09-04 16:39:45,1406832
2025-09-04 16:39:45,1406965
2025-09-04 16:39:45,1407107
2025-09-04 16:39:45,1407207
2025-09-04 16:39:45,1407235
2025-09-04 16:39:45,1407252
2025-09-04 16:39:45,1407275
2025-09-04 16:39:45,1407076
2025-09-04 16:39:45,1407105
2025-09-04 16:39:45,1407003
2025-09-04 16:39:45,1406941
2025-09-04 16:39:45,1406806
2025-09-04 16:39:45,1406723
2025-09-04 16:39:45,1406698
2025-09-04 16:39:45,1406818
2025-09-04 16:39:45,1406827
2025-09-04 16:39:45,1406962
2025-09-04 16:39:45,1407074
2025-09-04 16:39:45,1407118
2025-09-04 16:39:45,1407404
2025-09-04 16:39:45,1407594
2025-09-04 16:39:45,1407677
2025-09-04 16:39:45,1407891
2025-09-04 16:39:45,1408271
2025-09-04 16:39:45,1408336
2025-09-04 16:39:45,1408566
2025-09-04 16:39:45,1408828
2025-09-04 16:39:45,1408930
2025-09-04 16:39:45,1409199
2025-09-04 16:39:45,1409482
2025-09-04 16:39:45,1409647
2025-09-04 16:39:45,1409772
2025-09-04 16:39:45,1409943
2025-09-04 16:39:45,1410190
2025-09-04 16:39:45,1410346
2025-09-04 16:39:45,1410489
2025-09-04 16:39:45,1410701
2025-09-04 16:39:45,1410865
2025-09-04 16:39:45,1410960
2025-09-04 16:39:45,1411139
2025-09-04 16:39:45,1411364
2025-09-04 16:39:45,1411404
2025-09-04 16:39:45,1411629
2025-09-04 16:39:45,1411615
2025-09-04 16:39:45,1411767
2025-09-04 16:39:46,1412121
2025-09-04 16:39:46,1412243
2025-09-04 16:39:46,1412307
2025-09-04 16:39:46,1412424
2025-09-04 16:39:46,1412675
2025-09-04 16:39:46,1412748
2025-09-04 16:39:46,1413047
2025-09-04 16:39:46,1413161
2025-09-04 16:39:46,1413335
2025-09-04 16:39:46,1413498
2025-09-04 16:39:46,1413776
2025-09-04 16:39:46,1413934
2025-09-04 16:39:46,1414221
2025-09-04 16:39:46,1414309
2025-09-04 16:39:46,1414516
2025-09-04 16:39:46,1414562
2025-09-04 16:39:46,1414511
2025-09-04 16:39:46,1413987
2025-09-04 16:39:46,1412873
2025-09-04 16:39:46,1411789
2025-09-04 16:39:46,1410612
2025-09-04 16:39:46,1409664
2025-09-04 16:39:46,1408846
2025-09-04 16:39:46,1408134
2025-09-04 16:39:46,1407429
2025-09-04 16:39:46,1407036
2025-09-04 16:39:46,1406559
2025-09-04 16:39:46,1406356
2025-09-04 16:39:46,1406139
2025-09-04 16:39:46,1406004
2025-09-04 16:39:46,1405957
2025-09-04 16:39:46,1406047
2025-09-04 16:39:46,1406133
2025-09-04 16:39:46,1406273
2025-09-04 16:39:46,1406293
2025-09-04 16:39:46,1406529
2025-09-04 16:39:46,1406657
2025-09-04 16:39:46,1406850
2025-09-04 16:39:46,1407078
2025-09-04 16:39:46,1407274
2025-09-04 16:39:46,1407463
2025-09-04 16:39:46,1407730
2025-09-04 16:39:46,1407901
2025-09-04 16:39:48,1408105
2025-09-04 16:39:46,1408017
2025-09-04 16:39:46,1408045
2025-09-04 16:39:46,1408022
2025-09-04 16:39:46,1407921
2025-09-04 16:39:46,1407822
2025-09-04 16:39:48,1407738
2025-09-04 16:39:46,1407690
2025-09-04 16:39:46,1407436
2025-09-04 16:39:46,1407411
2025-09-04 16:39:46,1407406
2025-09-04 16:39:46,1407351
2025-09-04 16:39:48,1407364
2025-09-04 16:39:46,1407463
2025-09-04 16:39:46,1407542
2025-09-04 16:39:46,1407705
2025-09-04 16:39:46,1407708
2025-09-04 16:39:46,1407852
2025-09-04 16:39:46,1407992
2025-09-04 16:39:46,1408130
2025-09-04 16:39:46,1408425
2025-09-04 16:39:46,1408469
2025-09-04 16:39:46,1408782
2025-09-04 16:39:46,1408866
2025-09-04 16:39:46,1408992
2025-09-04 16:39:46,1409221
2025-09-04 16:39:46,1409347
2025-09-04 16:39:46,1409510
2025-09-04 16:39:46,1409662
2025-09-04 16:39:46,1409865
2025-09-04 16:39:46,1410074
2025-09-04 16:39:46,1410074
2025-09-04 16:39:46,1410261
2025-09-04 16:39:46,1410417
2025-09-04 16:39:46,1410507
2025-09-04 16:39:46,1410694
2025-09-04 16:39:46,1410737
2025-09-04 16:39:46,1410808
2025-09-04 16:39:46,1411023
2025-09-04 16:39:46,1411044
2025-09-04 16:39:46,1411248
2025-09-04 16:39:46,1411398
2025-09-04 16:39:46,1411436
2025-09-04 16:39:46,1411571
2025-09-04 16:39:46,1411730
2025-09-04 16:39:46,1411877
2025-09-04 16:39:46,1411886
2025-09-04 16:39:46,1412081
2025-09-04 16:39:46,1412291
2025-09-04 16:39:46,1412279
2025-09-04 16:39:46,1412484
2025-09-04 16:39:46,1412730
2025-09-04 16:39:46,1412836
2025-09-04 16:39:46,1412909
2025-09-04 16:39:46,1413082
2025-09-04 16:39:46,1413083
2025-09-04 16:39:46,1413327
2025-09-04 16:39:47,1413002
2025-09-04 16:39:47,1412125
2025-09-04 16:39:47,1411050
2025-09-04 16:39:47,1409630
2025-09-04 16:39:47,1408490
2025-09-04 16:39:47,1407546
2025-09-04 16:39:47,1406648
2025-09-04 16:39:47,1405863
2025-09-04 16:39:47,1405181
2025-09-04 16:39:47,1404380
2025-09-04 16:39:47,1403928
2025-09-04 16:39:47,1403864
2025-09-04 16:39:47,1403704
2025-09-04 16:39:47,1403585
2025-09-04 16:39:47,1403592
2025-09-04 16:39:47,1403519
2025-09-04 16:39:47,1403584
2025-09-04 16:39:47,1403565
2025-09-04 16:39:47,1403611
2025-09-04 16:39:47,1403694
2025-09-04 16:39:47,1403679
2025-09-04 16:39:47,1403705
2025-09-04 16:39:47,1403800
2025-09-04 16:39:47,1404001
2025-09-04 16:39:48,1404032
2025-09-04 16:39:47,1404153
2025-09-04 16:39:47,1404192
2025-09-04 16:39:47,1404108
2025-09-04 16:39:47,1404086
2025-09-04 16:39:47,1404034
2025-09-04 16:39:47,1403957
2025-09-04 16:39:47,1403834
2025-09-04 16:39:47,1403768
2025-09-04 16:39:47,1403708
2025-09-04 16:39:47,1403588
2025-09-04 16:39:47,1403438
2025-09-04 16:39:47,1403363
2025-09-04 16:39:47,1403339
2025-09-04 16:39:47,1403451
2025-09-04 16:39:47,1403374
2025-09-04 16:39:47,1403492
2025-09-04 16:39:47,1403570
2025-09-04 16:39:47,1403575
2025-09-04 16:39:47,1403802
2025-09-04 16:39:47,1403885
2025-09-04 16:39:47,1404083
2025-09-04 16:39:47,1404140
2025-09-04 16:39:47,1404317
2025-09-04 16:39:47,1404557
2025-09-04 16:39:47,1404609
2025-09-04 16:39:47,1404747
2025-09-04 16:39:47,1404963
2025-09-04 16:39:47,1405039
2025-09-04 16:39:47,1405292
2025-09-04 16:39:47,1405287
2025-09-04 16:39:47,1405442
2025-09-04 16:39:47,1405634
2025-09-04 16:39:47,1405760
2025-09-04 16:39:47,1405824
2025-09-04 16:39:47,1405970
2025-09-04 16:39:47,1406008
2025-09-04 16:39:47,1406094
2025-09-04 16:39:47,1406198
2025-09-04 16:39:47,1406404
2025-09-04 16:39:47,1406540
2025-09-04 16:39:47,1406626
2025-09-04 16:39:47,1406656
2025-09-04 16:39:47,1406740
2025-09-04 16:39:47,1406924
2025-09-04 16:39:47,1406985
2025-09-04 16:39:47,1407098
2025-09-04 16:39:47,1407331
2025-09-04 16:39:47,1407408
2025-09-04 16:39:47,1407644
2025-09-04 16:39:47,1407748
2025-09-04 16:39:47,1407911
2025-09-04 16:39:47,1408083
2025-09-04 16:39:47,1408269
2025-09-04 16:39:47,1408436
2025-09-04 16:39:47,1408591
2025-09-04 16:39:47,1408787
2025-09-04 16:39:47,1408884
2025-09-04 16:39:47,1409162
2025-09-04 16:39:47,1409295
2025-09-04 16:39:47,1409467
2025-09-04 16:39:47,1409297
2025-09-04 16:39:47,1408822
2025-09-04 16:39:47,1407809
2025-09-04 16:39:47,1406672
2025-09-04 16:39:47,1405442
2025-09-04 16:39:47,1404495
2025-09-04 16:39:47,1403567
2025-09-04 16:39:47,1402852
2025-09-04 16:39:47,1402148
2025-09-04 16:39:47,1401599
2025-09-04 16:39:47,1401130
2025-09-04 16:39:47,1400914
2025-09-04 16:39:47,1400616
2025-09-04 16:39:47,1400523
2025-09-04 16:39:47,1400473
2025-09-04 16:39:48,1400408
2025-09-04 16:39:48,1400382
2025-09-04 16:39:48,1400328
2025-09-04 16:39:48,1400423
2025-09-04 16:39:48,1400402
2025-09-04 16:39:48,1400306
2025-09-04 16:39:48,1400335
2025-09-04 16:39:48,1400437
2025-09-04 16:39:48,1400358
2025-09-04 16:39:48,1400515
2025-09-04 16:39:48,1400666
2025-09-04 16:39:48,1400747
2025-09-04 16:39:48,1400745
2025-09-04 16:39:48,1400801
2025-09-04 16:39:48,1400837
2025-09-04 16:39:48,1400827
2025-09-04 16:39:48,1400652
2025-09-04 16:39:48,1400578
2025-09-04 16:39:48,1400591
2025-09-04 16:39:48,1400451
2025-09-04 16:39:48,1400375
2025-09-04 16:39:48,1400448
2025-09-04 16:39:48,1400371
2025-09-04 16:39:48,1400316
2025-09-04 16:39:48,1400396
2025-09-04 16:39:48,1400386
2025-09-04 16:39:48,1400604
2025-09-04 16:39:48,1400676
2025-09-04 16:39:48,1400735
2025-09-04 16:39:48,1400861
2025-09-04 16:39:48,1401134
2025-09-04 16:39:48,1401316
2025-09-04 16:39:48,1401420
2025-09-04 16:39:48,1401587
2025-09-04 16:39:48,1401774
2025-09-04 16:39:48,1402023
2025-09-04 16:39:48,1402258
2025-09-04 16:39:48,1402414
2025-09-04 16:39:48,1402745
2025-09-04 16:39:48,1402936
2025-09-04 16:39:48,1403033
2025-09-04 16:39:48,1403287
2025-09-04 16:39:48,1403414
2025-09-04 16:39:48,1403636
2025-09-04 16:39:48,1403847
2025-09-04 16:39:48,1403950
2025-09-04 16:39:48,1404239
2025-09-04 16:39:48,1404251
2025-09-04 16:39:48,1404469
2025-09-04 16:39:48,1404619
2025-09-04 16:39:48,1404882
