timestamp,value
2025-09-04 16:47:06,1480661
2025-09-04 16:47:06,1480753
2025-09-04 16:47:06,1480837
2025-09-04 16:47:06,1480831
2025-09-04 16:47:06,1480953
2025-09-04 16:47:06,1480917
2025-09-04 16:47:06,1480829
2025-09-04 16:47:06,1480775
2025-09-04 16:47:06,1480803
2025-09-04 16:47:06,1480866
2025-09-04 16:47:06,1481015
2025-09-04 16:47:06,1481388
2025-09-04 16:47:06,1481603
2025-09-04 16:47:06,1481801
2025-09-04 16:47:06,1482041
2025-09-04 16:47:06,1482300
2025-09-04 16:47:06,1482488
2025-09-04 16:47:06,1482671
2025-09-04 16:47:06,1482949
2025-09-04 16:47:06,1483293
2025-09-04 16:47:06,1483561
2025-09-04 16:47:06,1483740
2025-09-04 16:47:06,1483800
2025-09-04 16:47:06,1483689
2025-09-04 16:47:06,1483636
2025-09-04 16:47:06,1483524
2025-09-04 16:47:06,1483329
2025-09-04 16:47:06,1483270
2025-09-04 16:47:06,1483337
2025-09-04 16:47:06,1483319
2025-09-04 16:47:06,1483290
2025-09-04 16:47:06,1483155
2025-09-04 16:47:06,1483006
2025-09-04 16:47:06,1482739
2025-09-04 16:47:06,1482583
2025-09-04 16:47:06,1482426
2025-09-04 16:47:06,1482072
2025-09-04 16:47:06,1481702
2025-09-04 16:47:06,1481900
2025-09-04 16:47:06,1481924
2025-09-04 16:47:06,1481937
2025-09-04 16:47:06,1481812
2025-09-04 16:47:06,1481543
2025-09-04 16:47:06,1481401
2025-09-04 16:47:06,1481610
2025-09-04 16:47:06,1482122
2025-09-04 16:47:06,1482613
2025-09-04 16:47:06,1483188
2025-09-04 16:47:06,1483796
2025-09-04 16:47:06,1484023
2025-09-04 16:47:06,1483804
2025-09-04 16:47:06,1483596
2025-09-04 16:47:06,1483503
2025-09-04 16:47:06,1483760
2025-09-04 16:47:06,1484438
2025-09-04 16:47:06,1485084
2025-09-04 16:47:06,1486060
2025-09-04 16:47:06,1487533
2025-09-04 16:47:06,1487759
2025-09-04 16:47:06,1486497
2025-09-04 16:47:06,1486382
2025-09-04 16:47:06,1485892
2025-09-04 16:47:06,1481632
2025-09-04 16:47:06,1471878
2025-09-04 16:47:06,1466918
2025-09-04 16:47:06,1466811
2025-09-04 16:47:06,1469209
2025-09-04 16:47:06,1472402
2025-09-04 16:47:06,1476228
2025-09-04 16:47:06,1479595
2025-09-04 16:47:06,1482003
2025-09-04 16:47:06,1483611
2025-09-04 16:47:06,1484642
2025-09-04 16:47:06,1485110
2025-09-04 16:47:06,1485096
2025-09-04 16:47:06,1485135
2025-09-04 16:47:06,1485284
2025-09-04 16:47:06,1485301
2025-09-04 16:47:06,1485377
2025-09-04 16:47:06,1485446
2025-09-04 16:47:06,1485439
2025-09-04 16:47:06,1485465
2025-09-04 16:47:06,1485496
2025-09-04 16:47:06,1485553
2025-09-04 16:47:06,1485385
2025-09-04 16:47:06,1485455
2025-09-04 16:47:06,1485297
2025-09-04 16:47:06,1485057
2025-09-04 16:47:06,1484929
2025-09-04 16:47:06,1484825
2025-09-04 16:47:06,1484868
2025-09-04 16:47:06,1484570
2025-09-04 16:47:07,1484411
2025-09-04 16:47:07,1484334
2025-09-04 16:47:07,1484129
2025-09-04 16:47:07,1483973
2025-09-04 16:47:07,1483745
2025-09-04 16:47:07,1483599
2025-09-04 16:47:07,1483660
2025-09-04 16:47:07,1483600
2025-09-04 16:47:07,1483743
2025-09-04 16:47:07,1483807
2025-09-04 16:47:07,1483998
2025-09-04 16:47:07,1484218
2025-09-04 16:47:07,1484441
2025-09-04 16:47:07,1484580
2025-09-04 16:47:07,1484779
2025-09-04 16:47:07,1484908
2025-09-04 16:47:07,1484969
2025-09-04 16:47:07,1485025
2025-09-04 16:47:07,1485088
2025-09-04 16:47:07,1485082
2025-09-04 16:47:07,1485030
2025-09-04 16:47:07,1484983
2025-09-04 16:47:07,1484995
2025-09-04 16:47:07,1484944
2025-09-04 16:47:07,1484835
2025-09-04 16:47:07,1484822
2025-09-04 16:47:07,1484684
2025-09-04 16:47:07,1484650
2025-09-04 16:47:07,1484616
2025-09-04 16:47:07,1484501
2025-09-04 16:47:07,1484416
2025-09-04 16:47:07,1484381
2025-09-04 16:47:07,1484357
2025-09-04 16:47:07,1484374
2025-09-04 16:47:07,1484276
2025-09-04 16:47:07,1484303
2025-09-04 16:47:07,1484290
2025-09-04 16:47:07,1484136
2025-09-04 16:47:07,1484122
2025-09-04 16:47:07,1483783
2025-09-04 16:47:07,1483313
2025-09-04 16:47:07,1482715
2025-09-04 16:47:07,1482180
2025-09-04 16:47:07,1481416
2025-09-04 16:47:07,1480737
2025-09-04 16:47:07,1480167
2025-09-04 16:47:07,1479456
2025-09-04 16:47:07,1479014
2025-09-04 16:47:07,1478504
2025-09-04 16:47:07,1477915
2025-09-04 16:47:07,1477455
2025-09-04 16:47:07,1477097
2025-09-04 16:47:07,1476604
2025-09-04 16:47:07,1476280
2025-09-04 16:47:07,1475965
2025-09-04 16:47:07,1475751
2025-09-04 16:47:07,1475515
2025-09-04 16:47:07,1475239
2025-09-04 16:47:07,1474952
2025-09-04 16:47:07,1474654
2025-09-04 16:47:07,1474427
2025-09-04 16:47:07,1474222
2025-09-04 16:47:07,1473953
2025-09-04 16:47:07,1473741
2025-09-04 16:47:07,1473545
2025-09-04 16:47:07,1473532
2025-09-04 16:47:07,1473284
2025-09-04 16:47:07,1473260
2025-09-04 16:47:07,1473101
2025-09-04 16:47:07,1472950
2025-09-04 16:47:07,1472931
2025-09-04 16:47:07,1472764
2025-09-04 16:47:07,1472663
2025-09-04 16:47:07,1472480
2025-09-04 16:47:07,1472491
2025-09-04 16:47:07,1472358
2025-09-04 16:47:07,1472341
2025-09-04 16:47:07,1472144
2025-09-04 16:47:07,1472165
2025-09-04 16:47:07,1472084
2025-09-04 16:47:07,1472035
2025-09-04 16:47:07,1471982
2025-09-04 16:47:07,1471932
2025-09-04 16:47:07,1471984
2025-09-04 16:47:07,1471967
2025-09-04 16:47:07,1472050
2025-09-04 16:47:07,1471962
2025-09-04 16:47:07,1472088
2025-09-04 16:47:07,1472075
2025-09-04 16:47:07,1472088
2025-09-04 16:47:07,1472135
2025-09-04 16:47:07,1472228
2025-09-04 16:47:07,1472157
2025-09-04 16:47:07,1472210
2025-09-04 16:47:07,1472214
2025-09-04 16:47:07,1472250
2025-09-04 16:47:07,1472211
2025-09-04 16:47:07,1472328
2025-09-04 16:47:07,1472385
2025-09-04 16:47:07,1472387
2025-09-04 16:47:08,1472383
2025-09-04 16:47:08,1472391
2025-09-04 16:47:08,1472348
2025-09-04 16:47:08,1472442
2025-09-04 16:47:08,1472363
2025-09-04 16:47:08,1472320
2025-09-04 16:47:08,1472285
2025-09-04 16:47:08,1472232
2025-09-04 16:47:08,1472286
2025-09-04 16:47:08,1472254
2025-09-04 16:47:08,1472242
2025-09-04 16:47:08,1472308
2025-09-04 16:47:08,1472211
2025-09-04 16:47:08,1472206
2025-09-04 16:47:08,1472269
2025-09-04 16:47:08,1472223
2025-09-04 16:47:08,1472255
2025-09-04 16:47:08,1472234
2025-09-04 16:47:08,1472293
2025-09-04 16:47:08,1472302
2025-09-04 16:47:08,1472085
2025-09-04 16:47:08,1471659
2025-09-04 16:47:08,1471004
2025-09-04 16:47:08,1470302
2025-09-04 16:47:08,1469593
2025-09-04 16:47:08,1468775
2025-09-04 16:47:08,1468047
2025-09-04 16:47:08,1467299
2025-09-04 16:47:08,1466773
2025-09-04 16:47:08,1466109
2025-09-04 16:47:08,1465542
2025-09-04 16:47:08,1465165
2025-09-04 16:47:08,1464754
2025-09-04 16:47:08,1464472
2025-09-04 16:47:08,1464203
2025-09-04 16:47:08,1463919
2025-09-04 16:47:08,1463772
2025-09-04 16:47:08,1463446
2025-09-04 16:47:08,1463336
2025-09-04 16:47:08,1463060
2025-09-04 16:47:08,1463023
2025-09-04 16:47:08,1462804
2025-09-04 16:47:08,1462522
2025-09-04 16:47:08,1462537
2025-09-04 16:47:08,1462423
2025-09-04 16:47:08,1462275
2025-09-04 16:47:08,1462264
2025-09-04 16:47:08,1462236
2025-09-04 16:47:08,1462239
2025-09-04 16:47:08,1462199
2025-09-04 16:47:08,1462125
2025-09-04 16:47:08,1462090
2025-09-04 16:47:08,1461922
2025-09-04 16:47:08,1461923
2025-09-04 16:47:08,1461824
2025-09-04 16:47:08,1461722
2025-09-04 16:47:08,1461680
2025-09-04 16:47:08,1461600
2025-09-04 16:47:08,1461427
2025-09-04 16:47:08,1461426
2025-09-04 16:47:08,1461338
2025-09-04 16:47:08,1461363
2025-09-04 16:47:08,1461247
2025-09-04 16:47:08,1461154
2025-09-04 16:47:08,1461306
2025-09-04 16:47:08,1461368
2025-09-04 16:47:08,1461454
2025-09-04 16:47:08,1461492
2025-09-04 16:47:08,1461480
2025-09-04 16:47:08,1461506
2025-09-04 16:47:08,1461702
2025-09-04 16:47:08,1461767
2025-09-04 16:47:08,1461861
2025-09-04 16:47:08,1461950
2025-09-04 16:47:08,1461923
2025-09-04 16:47:08,1462057
2025-09-04 16:47:08,1462237
2025-09-04 16:47:08,1462239
2025-09-04 16:47:08,1462343
2025-09-04 16:47:08,1462399
2025-09-04 16:47:08,1462474
2025-09-04 16:47:08,1462576
2025-09-04 16:47:08,1462632
2025-09-04 16:47:08,1462804
2025-09-04 16:47:08,1462788
2025-09-04 16:47:08,1462904
2025-09-04 16:47:08,1463059
2025-09-04 16:47:08,1463115
2025-09-04 16:47:08,1463087
2025-09-04 16:47:08,1463343
2025-09-04 16:47:08,1463400
2025-09-04 16:47:08,1463626
2025-09-04 16:47:08,1463530
2025-09-04 16:47:08,1463607
2025-09-04 16:47:08,1463766
2025-09-04 16:47:08,1463741
2025-09-04 16:47:08,1463875
2025-09-04 16:47:08,1463984
2025-09-04 16:47:08,1464006
2025-09-04 16:47:08,1464159
2025-09-04 16:47:09,1464162
2025-09-04 16:47:09,1464185
2025-09-04 16:47:09,1463895
2025-09-04 16:47:09,1463433
2025-09-04 16:47:09,1462662
2025-09-04 16:47:09,1461888
2025-09-04 16:47:09,1461062
2025-09-04 16:47:09,1460272
2025-09-04 16:47:09,1459528
2025-09-04 16:47:09,1458850
2025-09-04 16:47:09,1458258
2025-09-04 16:47:09,1457746
2025-09-04 16:47:09,1457287
2025-09-04 16:47:09,1456925
2025-09-04 16:47:09,1456511
2025-09-04 16:47:09,1456350
2025-09-04 16:47:09,1456071
2025-09-04 16:47:09,1455887
2025-09-04 16:47:09,1455651
2025-09-04 16:47:09,1455647
2025-09-04 16:47:09,1455461
2025-09-04 16:47:09,1455366
2025-09-04 16:47:09,1455269
2025-09-04 16:47:09,1455270
2025-09-04 16:47:09,1455176
2025-09-04 16:47:09,1455141
2025-09-04 16:47:09,1455168
2025-09-04 16:47:09,1455250
2025-09-04 16:47:09,1455355
2025-09-04 16:47:09,1455397
2025-09-04 16:47:09,1455443
2025-09-04 16:47:09,1455501
2025-09-04 16:47:09,1455451
2025-09-04 16:47:09,1455374
2025-09-04 16:47:09,1455416
2025-09-04 16:47:09,1455382
2025-09-04 16:47:09,1455225
2025-09-04 16:47:09,1455103
2025-09-04 16:47:09,1455214
2025-09-04 16:47:09,1455006
2025-09-04 16:47:09,1454982
2025-09-04 16:47:09,1454801
2025-09-04 16:47:09,1454744
2025-09-04 16:47:09,1454668
2025-09-04 16:47:09,1454627
2025-09-04 16:47:09,1454661
2025-09-04 16:47:09,1454675
2025-09-04 16:47:09,1454655
2025-09-04 16:47:09,1454784
2025-09-04 16:47:09,1454744
2025-09-04 16:47:09,1454853
2025-09-04 16:47:09,1454828
2025-09-04 16:47:09,1454866
2025-09-04 16:47:09,1454950
2025-09-04 16:47:09,1454908
2025-09-04 16:47:09,1454998
2025-09-04 16:47:09,1455020
2025-09-04 16:47:09,1455107
2025-09-04 16:47:09,1455151
2025-09-04 16:47:09,1455230
2025-09-04 16:47:09,1455272
2025-09-04 16:47:09,1455341
2025-09-04 16:47:09,1455321
2025-09-04 16:47:09,1455312
2025-09-04 16:47:09,1455392
2025-09-04 16:47:09,1455493
2025-09-04 16:47:09,1455520
2025-09-04 16:47:09,1455496
2025-09-04 16:47:09,1455764
2025-09-04 16:47:09,1455761
2025-09-04 16:47:09,1455833
2025-09-04 16:47:09,1455876
2025-09-04 16:47:09,1455979
2025-09-04 16:47:09,1456037
2025-09-04 16:47:09,1455963
2025-09-04 16:47:09,1456110
2025-09-04 16:47:09,1456131
2025-09-04 16:47:09,1455967
2025-09-04 16:47:09,1455737
2025-09-04 16:47:09,1455076
2025-09-04 16:47:09,1454444
2025-09-04 16:47:09,1453625
2025-09-04 16:47:09,1452865
2025-09-04 16:47:09,1452217
2025-09-04 16:47:09,1451456
2025-09-04 16:47:09,1450749
2025-09-04 16:47:09,1450174
2025-09-04 16:47:09,1449708
2025-09-04 16:47:09,1449155
2025-09-04 16:47:09,1448777
2025-09-04 16:47:09,1448569
2025-09-04 16:47:09,1448237
2025-09-04 16:47:09,1447966
2025-09-04 16:47:09,1447857
2025-09-04 16:47:09,1447803
2025-09-04 16:47:09,1447662
2025-09-04 16:47:09,1447582
2025-09-04 16:47:09,1447367
2025-09-04 16:47:09,1447434
2025-09-04 16:47:10,1447402
2025-09-04 16:47:10,1447306
2025-09-04 16:47:10,1447363
2025-09-04 16:47:10,1447385
2025-09-04 16:47:10,1447526
2025-09-04 16:47:10,1447560
2025-09-04 16:47:10,1447606
2025-09-04 16:47:10,1447636
2025-09-04 16:47:10,1447523
2025-09-04 16:47:10,1447535
2025-09-04 16:47:10,1447505
2025-09-04 16:47:10,1447460
2025-09-04 16:47:10,1447396
2025-09-04 16:47:10,1447300
2025-09-04 16:47:10,1447255
2025-09-04 16:47:10,1447158
2025-09-04 16:47:10,1447156
2025-09-04 16:47:10,1447109
2025-09-04 16:47:10,1447074
2025-09-04 16:47:10,1447088
2025-09-04 16:47:10,1447086
2025-09-04 16:47:10,1447160
2025-09-04 16:47:10,1447180
2025-09-04 16:47:10,1447313
2025-09-04 16:47:10,1447236
2025-09-04 16:47:10,1447290
2025-09-04 16:47:10,1447288
2025-09-04 16:47:10,1447476
2025-09-04 16:47:10,1447522
2025-09-04 16:47:10,1447543
2025-09-04 16:47:10,1447731
2025-09-04 16:47:10,1447766
2025-09-04 16:47:10,1447873
2025-09-04 16:47:10,1447858
2025-09-04 16:47:10,1447993
2025-09-04 16:47:10,1448027
2025-09-04 16:47:10,1448159
2025-09-04 16:47:10,1448206
2025-09-04 16:47:10,1448292
2025-09-04 16:47:10,1448239
2025-09-04 16:47:10,1448463
2025-09-04 16:47:10,1448528
2025-09-04 16:47:10,1448674
2025-09-04 16:47:10,1448699
2025-09-04 16:47:10,1448760
2025-09-04 16:47:10,1448932
2025-09-04 16:47:10,1448892
2025-09-04 16:47:10,1448981
2025-09-04 16:47:10,1449093
2025-09-04 16:47:10,1449283
2025-09-04 16:47:10,1449222
2025-09-04 16:47:10,1449361
2025-09-04 16:47:10,1449518
2025-09-04 16:47:10,1449611
2025-09-04 16:47:10,1449576
2025-09-04 16:47:10,1449634
2025-09-04 16:47:10,1449420
2025-09-04 16:47:10,1449125
2025-09-04 16:47:10,1448369
2025-09-04 16:47:10,1447528
2025-09-04 16:47:10,1446648
2025-09-04 16:47:10,1445635
2025-09-04 16:47:10,1444737
2025-09-04 16:47:10,1443988
2025-09-04 16:47:10,1443287
2025-09-04 16:47:10,1442662
2025-09-04 16:47:10,1442044
2025-09-04 16:47:10,1441587
2025-09-04 16:47:10,1441149
2025-09-04 16:47:10,1440769
2025-09-04 16:47:10,1440582
2025-09-04 16:47:10,1440276
2025-09-04 16:47:10,1440115
2025-09-04 16:47:10,1439920
2025-09-04 16:47:10,1439632
2025-09-04 16:47:10,1439495
2025-09-04 16:47:10,1439394
2025-09-04 16:47:10,1439241
2025-09-04 16:47:10,1439174
2025-09-04 16:47:10,1438980
2025-09-04 16:47:10,1438962
2025-09-04 16:47:10,1438935
2025-09-04 16:47:10,1439017
2025-09-04 16:47:10,1438958
2025-09-04 16:47:10,1438968
2025-09-04 16:47:10,1438999
2025-09-04 16:47:10,1438979
2025-09-04 16:47:10,1438927
2025-09-04 16:47:10,1438912
2025-09-04 16:47:10,1438888
2025-09-04 16:47:10,1438767
2025-09-04 16:47:10,1438663
2025-09-04 16:47:10,1438621
2025-09-04 16:47:10,1438436
2025-09-04 16:47:10,1438523
2025-09-04 16:47:10,1438348
2025-09-04 16:47:10,1438346
2025-09-04 16:47:10,1438272
2025-09-04 16:47:10,1438347
2025-09-04 16:47:10,1438355
2025-09-04 16:47:11,1438383
2025-09-04 16:47:11,1438349
2025-09-04 16:47:11,1438451
2025-09-04 16:47:11,1438548
2025-09-04 16:47:11,1438564
2025-09-04 16:47:11,1438640
2025-09-04 16:47:11,1438637
2025-09-04 16:47:11,1438847
2025-09-04 16:47:11,1438910
2025-09-04 16:47:11,1438961
2025-09-04 16:47:11,1439119
2025-09-04 16:47:11,1439156
2025-09-04 16:47:11,1439314
2025-09-04 16:47:11,1439334
2025-09-04 16:47:11,1439514
2025-09-04 16:47:11,1439535
2025-09-04 16:47:11,1439668
2025-09-04 16:47:11,1439711
2025-09-04 16:47:11,1439832
2025-09-04 16:47:11,1439944
2025-09-04 16:47:11,1440017
2025-09-04 16:47:11,1440130
2025-09-04 16:47:11,1440161
2025-09-04 16:47:11,1440269
2025-09-04 16:47:11,1440444
2025-09-04 16:47:11,1440526
2025-09-04 16:47:11,1440555
2025-09-04 16:47:11,1440658
2025-09-04 16:47:11,1440795
2025-09-04 16:47:11,1440948
2025-09-04 16:47:11,1440985
2025-09-04 16:47:11,1441061
2025-09-04 16:47:11,1441256
2025-09-04 16:47:11,1441437
2025-09-04 16:47:11,1441463
2025-09-04 16:47:11,1441614
2025-09-04 16:47:11,1441725
2025-09-04 16:47:11,1441647
2025-09-04 16:47:11,1441185
2025-09-04 16:47:11,1440699
2025-09-04 16:47:11,1439829
2025-09-04 16:47:11,1438915
2025-09-04 16:47:11,1438044
2025-09-04 16:47:11,1437362
2025-09-04 16:47:11,1436615
2025-09-04 16:47:11,1435929
2025-09-04 16:47:11,1435391
2025-09-04 16:47:11,1434906
2025-09-04 16:47:11,1434507
2025-09-04 16:47:11,1434138
2025-09-04 16:47:11,1433897
2025-09-04 16:47:11,1433658
2025-09-04 16:47:11,1433573
2025-09-04 16:47:11,1433326
2025-09-04 16:47:11,1433205
2025-09-04 16:47:11,1433176
2025-09-04 16:47:11,1433123
2025-09-04 16:47:11,1433066
2025-09-04 16:47:11,1432953
2025-09-04 16:47:11,1432898
2025-09-04 16:47:11,1432871
2025-09-04 16:47:11,1432925
2025-09-04 16:47:11,1432930
2025-09-04 16:47:11,1432898
2025-09-04 16:47:11,1433068
2025-09-04 16:47:11,1433160
2025-09-04 16:47:11,1433181
2025-09-04 16:47:11,1433175
2025-09-04 16:47:11,1433230
2025-09-04 16:47:11,1433104
2025-09-04 16:47:11,1433107
2025-09-04 16:47:11,1433062
2025-09-04 16:47:11,1433028
2025-09-04 16:47:11,1433007
2025-09-04 16:47:11,1432920
2025-09-04 16:47:11,1432830
2025-09-04 16:47:11,1432880
2025-09-04 16:47:11,1432770
2025-09-04 16:47:11,1432738
2025-09-04 16:47:11,1432861
2025-09-04 16:47:11,1432806
2025-09-04 16:47:11,1432884
2025-09-04 16:47:11,1432908
2025-09-04 16:47:11,1433038
2025-09-04 16:47:11,1433062
2025-09-04 16:47:11,1433140
2025-09-04 16:47:11,1433246
2025-09-04 16:47:11,1433358
2025-09-04 16:47:11,1433534
2025-09-04 16:47:11,1433556
2025-09-04 16:47:11,1433662
2025-09-04 16:47:11,1433776
2025-09-04 16:47:11,1434002
2025-09-04 16:47:11,1434085
2025-09-04 16:47:11,1434218
2025-09-04 16:47:11,1434332
2025-09-04 16:47:11,1434443
2025-09-04 16:47:11,1434565
2025-09-04 16:47:11,1434646
2025-09-04 16:47:11,1434756
2025-09-04 16:47:12,1434806
2025-09-04 16:47:12,1434874
2025-09-04 16:47:12,1435068
2025-09-04 16:47:12,1435162
2025-09-04 16:47:12,1435179
2025-09-04 16:47:12,1435265
2025-09-04 16:47:12,1435443
2025-09-04 16:47:12,1435589
2025-09-04 16:47:12,1435676
2025-09-04 16:47:12,1435699
2025-09-04 16:47:12,1435751
2025-09-04 16:47:12,1435917
2025-09-04 16:47:12,1436090
2025-09-04 16:47:12,1436250
2025-09-04 16:47:12,1436455
2025-09-04 16:47:12,1436538
2025-09-04 16:47:12,1436650
2025-09-04 16:47:12,1436763
2025-09-04 16:47:12,1436971
2025-09-04 16:47:12,1436973
2025-09-04 16:47:12,1436743
2025-09-04 16:47:12,1436189
2025-09-04 16:47:12,1435477
2025-09-04 16:47:12,1434733
2025-09-04 16:47:12,1434009
2025-09-04 16:47:12,1433193
2025-09-04 16:47:12,1432505
2025-09-04 16:47:12,1431939
2025-09-04 16:47:12,1431408
2025-09-04 16:47:12,1431003
2025-09-04 16:47:12,1430640
2025-09-04 16:47:12,1430290
2025-09-04 16:47:12,1430049
2025-09-04 16:47:12,1429945
2025-09-04 16:47:12,1429836
2025-09-04 16:47:12,1429718
2025-09-04 16:47:12,1429745
2025-09-04 16:47:12,1429646
2025-09-04 16:47:12,1429636
2025-09-04 16:47:12,1429645
2025-09-04 16:47:12,1429740
2025-09-04 16:47:12,1429623
2025-09-04 16:47:12,1429691
2025-09-04 16:47:12,1429683
2025-09-04 16:47:12,1429859
2025-09-04 16:47:12,1429925
2025-09-04 16:47:12,1430077
2025-09-04 16:47:12,1430182
2025-09-04 16:47:12,1430233
2025-09-04 16:47:12,1430280
2025-09-04 16:47:12,1430332
2025-09-04 16:47:12,1430252
2025-09-04 16:47:12,1430279
2025-09-04 16:47:12,1430181
2025-09-04 16:47:12,1430132
2025-09-04 16:47:12,1430060
2025-09-04 16:47:12,1430064
2025-09-04 16:47:12,1430041
2025-09-04 16:47:12,1429962
2025-09-04 16:47:12,1429987
2025-09-04 16:47:12,1429969
2025-09-04 16:47:12,1430069
2025-09-04 16:47:12,1430110
2025-09-04 16:47:12,1430240
2025-09-04 16:47:12,1430246
2025-09-04 16:47:12,1430420
2025-09-04 16:47:12,1430554
2025-09-04 16:47:12,1430679
2025-09-04 16:47:12,1430759
2025-09-04 16:47:12,1430900
2025-09-04 16:47:12,1430986
2025-09-04 16:47:12,1431127
2025-09-04 16:47:12,1431359
2025-09-04 16:47:12,1431481
2025-09-04 16:47:12,1431606
2025-09-04 16:47:12,1431704
2025-09-04 16:47:12,1431831
2025-09-04 16:47:12,1431954
2025-09-04 16:47:12,1432030
2025-09-04 16:47:12,1432214
2025-09-04 16:47:12,1432207
2025-09-04 16:47:12,1432382
2025-09-04 16:47:12,1432451
2025-09-04 16:47:12,1432564
2025-09-04 16:47:12,1432710
2025-09-04 16:47:12,1432856
2025-09-04 16:47:12,1432931
2025-09-04 16:47:12,1433136
2025-09-04 16:47:12,1433188
2025-09-04 16:47:12,1433254
2025-09-04 16:47:12,1433316
2025-09-04 16:47:12,1433569
2025-09-04 16:47:12,1433634
2025-09-04 16:47:12,1433842
2025-09-04 16:47:12,1433972
2025-09-04 16:47:12,1434071
2025-09-04 16:47:12,1434199
2025-09-04 16:47:12,1434065
2025-09-04 16:47:12,1433763
2025-09-04 16:47:12,1433251
2025-09-04 16:47:13,1432465
2025-09-04 16:47:13,1431659
2025-09-04 16:47:13,1431022
2025-09-04 16:47:13,1430346
2025-09-04 16:47:13,1429746
2025-09-04 16:47:13,1429168
2025-09-04 16:47:13,1428713
2025-09-04 16:47:13,1428367
2025-09-04 16:47:13,1428057
2025-09-04 16:47:13,1427834
2025-09-04 16:47:13,1427636
2025-09-04 16:47:13,1427452
2025-09-04 16:47:13,1427360
2025-09-04 16:47:13,1427259
2025-09-04 16:47:13,1427383
2025-09-04 16:47:13,1427350
2025-09-04 16:47:13,1427279
2025-09-04 16:47:13,1427367
2025-09-04 16:47:13,1427323
2025-09-04 16:47:13,1427397
2025-09-04 16:47:13,1427538
2025-09-04 16:47:13,1427645
2025-09-04 16:47:13,1427802
2025-09-04 16:47:13,1427860
2025-09-04 16:47:13,1427984
2025-09-04 16:47:13,1427990
2025-09-04 16:47:13,1428017
2025-09-04 16:47:13,1428031
2025-09-04 16:47:13,1428039
2025-09-04 16:47:13,1428030
2025-09-04 16:47:13,1427930
2025-09-04 16:47:13,1427854
2025-09-04 16:47:13,1427886
2025-09-04 16:47:13,1427805
2025-09-04 16:47:13,1427612
2025-09-04 16:47:13,1427709
2025-09-04 16:47:13,1427693
2025-09-04 16:47:13,1427706
2025-09-04 16:47:13,1427738
2025-09-04 16:47:13,1427732
2025-09-04 16:47:13,1427908
2025-09-04 16:47:13,1427951
2025-09-04 16:47:13,1428025
2025-09-04 16:47:13,1428160
2025-09-04 16:47:13,1428342
2025-09-04 16:47:13,1428453
2025-09-04 16:47:13,1428619
2025-09-04 16:47:13,1428688
2025-09-04 16:47:13,1428803
2025-09-04 16:47:13,1428926
2025-09-04 16:47:13,1429045
2025-09-04 16:47:13,1429146
2025-09-04 16:47:13,1429295
2025-09-04 16:47:13,1429414
2025-09-04 16:47:13,1429581
2025-09-04 16:47:13,1429610
2025-09-04 16:47:13,1429815
2025-09-04 16:47:13,1429883
2025-09-04 16:47:13,1430040
2025-09-04 16:47:13,1430231
2025-09-04 16:47:13,1430334
2025-09-04 16:47:13,1430507
2025-09-04 16:47:13,1430669
2025-09-04 16:47:13,1430731
2025-09-04 16:47:13,1430865
2025-09-04 16:47:13,1430998
2025-09-04 16:47:13,1431103
2025-09-04 16:47:13,1431210
2025-09-04 16:47:13,1431286
2025-09-04 16:47:13,1431440
2025-09-04 16:47:13,1431591
2025-09-04 16:47:13,1431708
2025-09-04 16:47:13,1431850
2025-09-04 16:47:13,1431912
2025-09-04 16:47:13,1432006
2025-09-04 16:47:13,1432145
2025-09-04 16:47:13,1432121
2025-09-04 16:47:13,1432122
2025-09-04 16:47:13,1431690
2025-09-04 16:47:13,1430961
2025-09-04 16:47:13,1430227
2025-09-04 16:47:13,1429419
2025-09-04 16:47:13,1428486
2025-09-04 16:47:13,1427858
2025-09-04 16:47:13,1427148
2025-09-04 16:47:13,1426602
2025-09-04 16:47:13,1426028
2025-09-04 16:47:13,1425618
2025-09-04 16:47:13,1425091
2025-09-04 16:47:13,1424926
2025-09-04 16:47:13,1424761
2025-09-04 16:47:13,1424490
2025-09-04 16:47:13,1424395
2025-09-04 16:47:13,1424332
2025-09-04 16:47:13,1424203
2025-09-04 16:47:13,1424139
2025-09-04 16:47:13,1423970
2025-09-04 16:47:13,1423876
2025-09-04 16:47:13,1423881
2025-09-04 16:47:14,1423729
2025-09-04 16:47:14,1423718
2025-09-04 16:47:14,1423667
2025-09-04 16:47:14,1423759
2025-09-04 16:47:14,1423714
2025-09-04 16:47:14,1423767
2025-09-04 16:47:14,1423716
2025-09-04 16:47:14,1423874
2025-09-04 16:47:14,1423739
2025-09-04 16:47:14,1423812
2025-09-04 16:47:14,1423779
2025-09-04 16:47:14,1423776
2025-09-04 16:47:14,1423730
2025-09-04 16:47:14,1423623
2025-09-04 16:47:14,1423645
2025-09-04 16:47:14,1423515
2025-09-04 16:47:14,1423532
2025-09-04 16:47:14,1423492
2025-09-04 16:47:14,1423501
2025-09-04 16:47:14,1423476
2025-09-04 16:47:14,1423515
2025-09-04 16:47:14,1423585
2025-09-04 16:47:14,1423637
2025-09-04 16:47:14,1423762
2025-09-04 16:47:14,1423798
2025-09-04 16:47:14,1423925
2025-09-04 16:47:14,1424043
2025-09-04 16:47:14,1424071
2025-09-04 16:47:14,1424267
2025-09-04 16:47:14,1424425
2025-09-04 16:47:14,1424533
2025-09-04 16:47:14,1424552
2025-09-04 16:47:14,1424757
2025-09-04 16:47:14,1424922
2025-09-04 16:47:14,1424967
2025-09-04 16:47:14,1425099
2025-09-04 16:47:14,1425204
2025-09-04 16:47:14,1425342
2025-09-04 16:47:14,1425495
2025-09-04 16:47:14,1425626
2025-09-04 16:47:14,1425753
2025-09-04 16:47:14,1425785
2025-09-04 16:47:14,1425947
2025-09-04 16:47:14,1425996
2025-09-04 16:47:14,1426232
2025-09-04 16:47:14,1426209
2025-09-04 16:47:14,1426387
2025-09-04 16:47:14,1426628
2025-09-04 16:47:14,1426604
2025-09-04 16:47:14,1426773
2025-09-04 16:47:14,1426848
2025-09-04 16:47:14,1427069
2025-09-04 16:47:14,1427106
2025-09-04 16:47:14,1427349
2025-09-04 16:47:14,1427433
2025-09-04 16:47:14,1427557
2025-09-04 16:47:14,1427638
2025-09-04 16:47:14,1427878
2025-09-04 16:47:14,1428040
2025-09-04 16:47:14,1428142
2025-09-04 16:47:14,1428268
2025-09-04 16:47:14,1428384
2025-09-04 16:47:14,1428589
2025-09-04 16:47:14,1428373
2025-09-04 16:47:14,1428102
2025-09-04 16:47:14,1427340
2025-09-04 16:47:14,1426515
2025-09-04 16:47:14,1425808
2025-09-04 16:47:14,1424925
2025-09-04 16:47:14,1424189
2025-09-04 16:47:14,1423576
2025-09-04 16:47:14,1423053
2025-09-04 16:47:14,1422551
2025-09-04 16:47:14,1422111
2025-09-04 16:47:14,1421866
2025-09-04 16:47:14,1421552
2025-09-04 16:47:14,1421303
2025-09-04 16:47:14,1421227
2025-09-04 16:47:14,1421060
2025-09-04 16:47:14,1421056
2025-09-04 16:47:14,1420853
2025-09-04 16:47:14,1420855
2025-09-04 16:47:14,1420687
2025-09-04 16:47:14,1420613
2025-09-04 16:47:14,1420517
2025-09-04 16:47:14,1420560
2025-09-04 16:47:14,1420561
2025-09-04 16:47:14,1420532
2025-09-04 16:47:14,1420608
2025-09-04 16:47:14,1420656
2025-09-04 16:47:14,1420777
2025-09-04 16:47:14,1420752
2025-09-04 16:47:14,1420765
2025-09-04 16:47:14,1420745
2025-09-04 16:47:14,1420694
2025-09-04 16:47:14,1420755
2025-09-04 16:47:14,1420695
2025-09-04 16:47:14,1420726
2025-09-04 16:47:14,1420656
2025-09-04 16:47:14,1420626
2025-09-04 16:47:15,1420724
2025-09-04 16:47:15,1420702
2025-09-04 16:47:15,1420715
2025-09-04 16:47:15,1420696
2025-09-04 16:47:15,1420743
2025-09-04 16:47:15,1420843
2025-09-04 16:47:15,1420814
2025-09-04 16:47:15,1420911
2025-09-04 16:47:15,1421044
2025-09-04 16:47:15,1421154
2025-09-04 16:47:15,1421305
2025-09-04 16:47:15,1421385
2025-09-04 16:47:15,1421528
2025-09-04 16:47:15,1421647
2025-09-04 16:47:15,1421713
2025-09-04 16:47:15,1421921
2025-09-04 16:47:15,1422108
2025-09-04 16:47:15,1422231
2025-09-04 16:47:15,1422485
2025-09-04 16:47:15,1422581
2025-09-04 16:47:15,1422839
2025-09-04 16:47:15,1422944
2025-09-04 16:47:15,1423144
2025-09-04 16:47:15,1423288
2025-09-04 16:47:15,1423419
2025-09-04 16:47:15,1423681
2025-09-04 16:47:15,1423823
2025-09-04 16:47:15,1423985
2025-09-04 16:47:15,1424064
2025-09-04 16:47:15,1424240
2025-09-04 16:47:15,1424376
2025-09-04 16:47:15,1424543
2025-09-04 16:47:15,1424622
2025-09-04 16:47:15,1424764
2025-09-04 16:47:15,1424935
2025-09-04 16:47:15,1425021
2025-09-04 16:47:15,1425206
2025-09-04 16:47:15,1425412
2025-09-04 16:47:15,1425432
2025-09-04 16:47:15,1425580
2025-09-04 16:47:15,1425815
2025-09-04 16:47:15,1425953
2025-09-04 16:47:15,1426147
2025-09-04 16:47:15,1426402
2025-09-04 16:47:15,1426606
2025-09-04 16:47:15,1426772
2025-09-04 16:47:15,1426918
2025-09-04 16:47:15,1427163
2025-09-04 16:47:15,1427385
2025-09-04 16:47:15,1427648
2025-09-04 16:47:15,1427745
2025-09-04 16:47:15,1427809
2025-09-04 16:47:15,1427590
2025-09-04 16:47:15,1426997
2025-09-04 16:47:15,1426291
2025-09-04 16:47:15,1425519
2025-09-04 16:47:15,1424609
2025-09-04 16:47:15,1424019
2025-09-04 16:47:15,1423342
2025-09-04 16:47:15,1422803
2025-09-04 16:47:15,1422231
2025-09-04 16:47:15,1421911
2025-09-04 16:47:15,1421548
2025-09-04 16:47:15,1421231
2025-09-04 16:47:15,1421144
2025-09-04 16:47:15,1420967
2025-09-04 16:47:15,1420874
2025-09-04 16:47:15,1420802
2025-09-04 16:47:15,1420841
2025-09-04 16:47:15,1420751
2025-09-04 16:47:15,1420717
2025-09-04 16:47:15,1420786
2025-09-04 16:47:15,1420898
2025-09-04 16:47:15,1420852
2025-09-04 16:47:15,1420807
2025-09-04 16:47:15,1421020
2025-09-04 16:47:15,1421216
2025-09-04 16:47:15,1421292
2025-09-04 16:47:15,1421366
2025-09-04 16:47:15,1421472
2025-09-04 16:47:15,1421464
2025-09-04 16:47:15,1421569
2025-09-04 16:47:15,1421588
2025-09-04 16:47:15,1421575
2025-09-04 16:47:15,1421719
2025-09-04 16:47:15,1421663
2025-09-04 16:47:15,1421652
2025-09-04 16:47:15,1421590
2025-09-04 16:47:15,1421624
2025-09-04 16:47:15,1421527
2025-09-04 16:47:15,1421626
2025-09-04 16:47:15,1421695
2025-09-04 16:47:15,1421761
2025-09-04 16:47:15,1421803
2025-09-04 16:47:15,1421960
2025-09-04 16:47:15,1421983
2025-09-04 16:47:15,1422213
2025-09-04 16:47:15,1422229
2025-09-04 16:47:15,1422445
2025-09-04 16:47:15,1422597
2025-09-04 16:47:16,1422800
2025-09-04 16:47:16,1422857
2025-09-04 16:47:16,1423036
2025-09-04 16:47:16,1423191
2025-09-04 16:47:16,1423447
2025-09-04 16:47:16,1423585
2025-09-04 16:47:16,1423672
2025-09-04 16:47:16,1423915
2025-09-04 16:47:16,1423981
2025-09-04 16:47:16,1424206
2025-09-04 16:47:16,1424381
2025-09-04 16:47:16,1424504
2025-09-04 16:47:16,1424697
2025-09-04 16:47:16,1424722
2025-09-04 16:47:16,1424995
2025-09-04 16:47:16,1425145
2025-09-04 16:47:16,1425187
2025-09-04 16:47:16,1425425
2025-09-04 16:47:16,1425511
2025-09-04 16:47:16,1425675
2025-09-04 16:47:16,1425740
2025-09-04 16:47:16,1425915
2025-09-04 16:47:16,1426086
2025-09-04 16:47:16,1426319
2025-09-04 16:47:16,1426412
2025-09-04 16:47:16,1426641
2025-09-04 16:47:16,1426741
2025-09-04 16:47:16,1426856
2025-09-04 16:47:16,1427070
2025-09-04 16:47:16,1427272
2025-09-04 16:47:16,1427467
2025-09-04 16:47:16,1427656
2025-09-04 16:47:16,1427915
2025-09-04 16:47:16,1428053
2025-09-04 16:47:16,1428188
2025-09-04 16:47:16,1428225
2025-09-04 16:47:16,1428207
2025-09-04 16:47:16,1427748
2025-09-04 16:47:16,1427175
2025-09-04 16:47:16,1426553
2025-09-04 16:47:16,1425703
2025-09-04 16:47:16,1425119
2025-09-04 16:47:16,1424623
2025-09-04 16:47:16,1424024
2025-09-04 16:47:16,1423628
2025-09-04 16:47:16,1423242
2025-09-04 16:47:16,1422903
2025-09-04 16:47:16,1422648
2025-09-04 16:47:16,1422535
2025-09-04 16:47:16,1422396
2025-09-04 16:47:16,1422392
2025-09-04 16:47:16,1422324
2025-09-04 16:47:16,1422293
2025-09-04 16:47:16,1422394
2025-09-04 16:47:16,1422383
2025-09-04 16:47:16,1422497
2025-09-04 16:47:16,1422504
2025-09-04 16:47:16,1422589
2025-09-04 16:47:16,1422791
2025-09-04 16:47:16,1422956
2025-09-04 16:47:16,1423075
2025-09-04 16:47:16,1423302
2025-09-04 16:47:16,1423360
2025-09-04 16:47:16,1423399
2025-09-04 16:47:16,1423537
2025-09-04 16:47:16,1423575
2025-09-04 16:47:16,1423523
2025-09-04 16:47:16,1423624
2025-09-04 16:47:16,1423643
2025-09-04 16:47:16,1423598
2025-09-04 16:47:16,1423607
2025-09-04 16:47:16,1423614
2025-09-04 16:47:16,1423555
2025-09-04 16:47:16,1423627
2025-09-04 16:47:16,1423666
2025-09-04 16:47:16,1423724
2025-09-04 16:47:16,1423864
2025-09-04 16:47:16,1423973
2025-09-04 16:47:16,1424099
2025-09-04 16:47:16,1424274
2025-09-04 16:47:16,1424361
2025-09-04 16:47:16,1424431
2025-09-04 16:47:16,1424626
2025-09-04 16:47:16,1424711
2025-09-04 16:47:16,1424837
2025-09-04 16:47:16,1425006
2025-09-04 16:47:16,1425216
2025-09-04 16:47:16,1425259
2025-09-04 16:47:16,1425468
2025-09-04 16:47:16,1425549
2025-09-04 16:47:16,1425689
2025-09-04 16:47:16,1425883
2025-09-04 16:47:16,1425943
2025-09-04 16:47:16,1426054
2025-09-04 16:47:16,1426194
2025-09-04 16:47:16,1426306
2025-09-04 16:47:16,1426498
2025-09-04 16:47:16,1426586
2025-09-04 16:47:16,1426733
2025-09-04 16:47:16,1426855
2025-09-04 16:47:17,1427056
2025-09-04 16:47:17,1427106
2025-09-04 16:47:17,1427299
2025-09-04 16:47:17,1427474
2025-09-04 16:47:17,1427585
2025-09-04 16:47:17,1427844
2025-09-04 16:47:17,1427875
2025-09-04 16:47:17,1428009
2025-09-04 16:47:17,1428158
2025-09-04 16:47:17,1428305
2025-09-04 16:47:17,1428515
2025-09-04 16:47:17,1428605
2025-09-04 16:47:17,1428834
2025-09-04 16:47:17,1428959
2025-09-04 16:47:17,1429080
2025-09-04 16:47:17,1429212
2025-09-04 16:47:17,1429401
2025-09-04 16:47:17,1429477
2025-09-04 16:47:17,1429334
2025-09-04 16:47:17,1428881
2025-09-04 16:47:17,1428211
2025-09-04 16:47:17,1427455
2025-09-04 16:47:17,1426573
2025-09-04 16:47:17,1425834
2025-09-04 16:47:17,1425157
2025-09-04 16:47:17,1424574
2025-09-04 16:47:17,1424034
2025-09-04 16:47:17,1423499
2025-09-04 16:47:17,1423077
2025-09-04 16:47:17,1422880
2025-09-04 16:47:17,1422492
2025-09-04 16:47:17,1422317
2025-09-04 16:47:17,1422171
2025-09-04 16:47:17,1422069
2025-09-04 16:47:17,1421957
2025-09-04 16:47:17,1421863
2025-09-04 16:47:17,1421851
2025-09-04 16:47:17,1421826
2025-09-04 16:47:17,1421730
2025-09-04 16:47:17,1421707
2025-09-04 16:47:17,1421715
2025-09-04 16:47:17,1421620
2025-09-04 16:47:17,1421708
2025-09-04 16:47:17,1421881
2025-09-04 16:47:17,1421940
2025-09-04 16:47:17,1422003
2025-09-04 16:47:17,1421988
2025-09-04 16:47:17,1422023
2025-09-04 16:47:17,1422083
2025-09-04 16:47:17,1422091
2025-09-04 16:47:17,1422041
2025-09-04 16:47:17,1421979
2025-09-04 16:47:17,1422005
2025-09-04 16:47:17,1421984
2025-09-04 16:47:17,1421887
2025-09-04 16:47:17,1421815
2025-09-04 16:47:17,1421860
2025-09-04 16:47:17,1421853
2025-09-04 16:47:17,1421876
2025-09-04 16:47:17,1421935
2025-09-04 16:47:17,1421941
2025-09-04 16:47:17,1422065
2025-09-04 16:47:17,1421996
2025-09-04 16:47:17,1422154
2025-09-04 16:47:17,1422334
2025-09-04 16:47:17,1422372
2025-09-04 16:47:17,1422457
2025-09-04 16:47:17,1422615
2025-09-04 16:47:17,1422798
2025-09-04 16:47:17,1422887
2025-09-04 16:47:17,1423079
2025-09-04 16:47:17,1423214
2025-09-04 16:47:17,1423349
2025-09-04 16:47:17,1423367
2025-09-04 16:47:17,1423490
2025-09-04 16:47:17,1423661
2025-09-04 16:47:17,1423742
2025-09-04 16:47:17,1423934
2025-09-04 16:47:17,1424053
2025-09-04 16:47:17,1424199
2025-09-04 16:47:17,1424269
2025-09-04 16:47:17,1424399
2025-09-04 16:47:17,1424491
2025-09-04 16:47:17,1424636
2025-09-04 16:47:17,1424657
2025-09-04 16:47:17,1424789
2025-09-04 16:47:17,1424905
2025-09-04 16:47:17,1425154
2025-09-04 16:47:17,1425192
2025-09-04 16:47:17,1425366
2025-09-04 16:47:17,1425531
2025-09-04 16:47:17,1425727
2025-09-04 16:47:17,1425678
2025-09-04 16:47:17,1425896
2025-09-04 16:47:17,1425942
2025-09-04 16:47:17,1426171
2025-09-04 16:47:17,1426259
2025-09-04 16:47:17,1426449
2025-09-04 16:47:17,1426618
2025-09-04 16:47:17,1426767
2025-09-04 16:47:18,1426794
2025-09-04 16:47:18,1426925
2025-09-04 16:47:18,1427117
2025-09-04 16:47:18,1426955
2025-09-04 16:47:18,1426515
2025-09-04 16:47:18,1425875
2025-09-04 16:47:18,1425109
2025-09-04 16:47:18,1424252
2025-09-04 16:47:18,1423635
2025-09-04 16:47:18,1422844
2025-09-04 16:47:18,1422192
2025-09-04 16:47:18,1421705
2025-09-04 16:47:18,1421190
2025-09-04 16:47:18,1420776
2025-09-04 16:47:18,1420448
2025-09-04 16:47:18,1420201
2025-09-04 16:47:18,1419957
2025-09-04 16:47:18,1419836
2025-09-04 16:47:18,1419737
2025-09-04 16:47:18,1419705
2025-09-04 16:47:18,1419549
2025-09-04 16:47:18,1419454
2025-09-04 16:47:18,1419412
2025-09-04 16:47:18,1419390
2025-09-04 16:47:18,1419232
2025-09-04 16:47:18,1419204
2025-09-04 16:47:18,1419159
2025-09-04 16:47:18,1419277
2025-09-04 16:47:18,1419348
2025-09-04 16:47:18,1419367
2025-09-04 16:47:18,1419445
2025-09-04 16:47:18,1419440
2025-09-04 16:47:18,1419522
2025-09-04 16:47:18,1419436
2025-09-04 16:47:18,1419383
2025-09-04 16:47:18,1419402
2025-09-04 16:47:18,1419438
2025-09-04 16:47:18,1419424
2025-09-04 16:47:18,1419422
2025-09-04 16:47:18,1419394
2025-09-04 16:47:18,1419329
2025-09-04 16:47:18,1419252
2025-09-04 16:47:18,1419344
2025-09-04 16:47:18,1419341
2025-09-04 16:47:18,1419436
2025-09-04 16:47:18,1419534
2025-09-04 16:47:18,1419585
2025-09-04 16:47:18,1419789
2025-09-04 16:47:18,1419832
2025-09-04 16:47:18,1419876
2025-09-04 16:47:18,1420044
2025-09-04 16:47:18,1420193
2025-09-04 16:47:18,1420286
2025-09-04 16:47:18,1420440
2025-09-04 16:47:18,1420637
2025-09-04 16:47:18,1420797
2025-09-04 16:47:18,1420869
2025-09-04 16:47:18,1421011
2025-09-04 16:47:18,1421136
2025-09-04 16:47:18,1421217
2025-09-04 16:47:18,1421381
2025-09-04 16:47:18,1421566
2025-09-04 16:47:18,1421728
2025-09-04 16:47:18,1421800
2025-09-04 16:47:18,1421951
2025-09-04 16:47:18,1421978
2025-09-04 16:47:18,1422203
2025-09-04 16:47:18,1422250
2025-09-04 16:47:18,1422421
2025-09-04 16:47:18,1422550
2025-09-04 16:47:18,1422708
2025-09-04 16:47:18,1422779
2025-09-04 16:47:18,1422909
2025-09-04 16:47:18,1423071
2025-09-04 16:47:18,1423205
2025-09-04 16:47:18,1423375
2025-09-04 16:47:18,1423458
2025-09-04 16:47:18,1423699
2025-09-04 16:47:18,1423727
2025-09-04 16:47:18,1423948
2025-09-04 16:47:18,1424019
2025-09-04 16:47:18,1424261
2025-09-04 16:47:18,1424401
2025-09-04 16:47:18,1424613
2025-09-04 16:47:18,1424752
2025-09-04 16:47:18,1424917
2025-09-04 16:47:18,1425064
2025-09-04 16:47:18,1425313
2025-09-04 16:47:18,1425380
2025-09-04 16:47:18,1425618
2025-09-04 16:47:18,1425708
2025-09-04 16:47:18,1425643
2025-09-04 16:47:18,1425228
2025-09-04 16:47:18,1424532
2025-09-04 16:47:18,1423840
2025-09-04 16:47:18,1423081
2025-09-04 16:47:18,1422366
2025-09-04 16:47:18,1421668
2025-09-04 16:47:18,1421201
2025-09-04 16:47:18,1420685
2025-09-04 16:47:19,1420338
2025-09-04 16:47:19,1419958
2025-09-04 16:47:19,1419659
2025-09-04 16:47:19,1419477
2025-09-04 16:47:19,1419359
2025-09-04 16:47:19,1419288
2025-09-04 16:47:19,1419202
2025-09-04 16:47:19,1419172
2025-09-04 16:47:19,1419108
2025-09-04 16:47:19,1419102
2025-09-04 16:47:19,1419043
2025-09-04 16:47:19,1419086
2025-09-04 16:47:19,1419215
2025-09-04 16:47:19,1419296
2025-09-04 16:47:19,1419247
2025-09-04 16:47:19,1419428
2025-09-04 16:47:19,1419657
2025-09-04 16:47:19,1419594
2025-09-04 16:47:19,1419829
2025-09-04 16:47:19,1419778
2025-09-04 16:47:19,1419809
2025-09-04 16:47:19,1419850
2025-09-04 16:47:19,1419892
2025-09-04 16:47:19,1419852
2025-09-04 16:47:19,1419914
2025-09-04 16:47:19,1419730
2025-09-04 16:47:19,1419755
2025-09-04 16:47:19,1419685
2025-09-04 16:47:19,1419708
2025-09-04 16:47:19,1419719
2025-09-04 16:47:19,1419816
2025-09-04 16:47:19,1419787
2025-09-04 16:47:19,1419912
2025-09-04 16:47:19,1420027
2025-09-04 16:47:19,1420167
2025-09-04 16:47:19,1420255
2025-09-04 16:47:19,1420416
2025-09-04 16:47:19,1420459
2025-09-04 16:47:19,1420688
2025-09-04 16:47:19,1420722
2025-09-04 16:47:19,1420912
2025-09-04 16:47:19,1421055
2025-09-04 16:47:19,1421294
2025-09-04 16:47:19,1421338
2025-09-04 16:47:19,1421611
2025-09-04 16:47:19,1421701
2025-09-04 16:47:19,1421938
2025-09-04 16:47:19,1422068
2025-09-04 16:47:19,1422153
2025-09-04 16:47:19,1422339
2025-09-04 16:47:19,1422416
2025-09-04 16:47:19,1422587
2025-09-04 16:47:19,1422746
2025-09-04 16:47:19,1422962
2025-09-04 16:47:19,1423082
2025-09-04 16:47:19,1423174
2025-09-04 16:47:19,1423395
2025-09-04 16:47:19,1423520
2025-09-04 16:47:19,1423630
2025-09-04 16:47:19,1423872
2025-09-04 16:47:19,1423877
2025-09-04 16:47:19,1424150
2025-09-04 16:47:19,1424271
2025-09-04 16:47:19,1424434
2025-09-04 16:47:19,1424568
2025-09-04 16:47:19,1424769
2025-09-04 16:47:19,1424979
2025-09-04 16:47:19,1425123
2025-09-04 16:47:19,1425200
2025-09-04 16:47:19,1425464
2025-09-04 16:47:19,1425646
2025-09-04 16:47:19,1425800
2025-09-04 16:47:19,1425967
2025-09-04 16:47:19,1425978
2025-09-04 16:47:19,1425686
2025-09-04 16:47:19,1425184
2025-09-04 16:47:19,1424590
2025-09-04 16:47:19,1423896
2025-09-04 16:47:19,1423247
2025-09-04 16:47:19,1422631
2025-09-04 16:47:19,1422164
2025-09-04 16:47:19,1421633
2025-09-04 16:47:19,1421196
2025-09-04 16:47:19,1420956
2025-09-04 16:47:19,1420677
2025-09-04 16:47:19,1420466
2025-09-04 16:47:19,1420454
2025-09-04 16:47:19,1420328
2025-09-04 16:47:19,1420276
2025-09-04 16:47:19,1420296
2025-09-04 16:47:19,1420213
2025-09-04 16:47:19,1420319
2025-09-04 16:47:19,1420450
2025-09-04 16:47:19,1420533
2025-09-04 16:47:19,1420514
2025-09-04 16:47:19,1420657
2025-09-04 16:47:19,1420823
2025-09-04 16:47:19,1420975
2025-09-04 16:47:19,1420990
2025-09-04 16:47:19,1421162
2025-09-04 16:47:20,1421305
2025-09-04 16:47:20,1421211
2025-09-04 16:47:20,1421262
2025-09-04 16:47:20,1421184
2025-09-04 16:47:20,1421148
2025-09-04 16:47:20,1421087
2025-09-04 16:47:20,1421058
2025-09-04 16:47:20,1420987
2025-09-04 16:47:20,1420904
2025-09-04 16:47:20,1420916
2025-09-04 16:47:20,1420898
2025-09-04 16:47:20,1420955
2025-09-04 16:47:20,1420895
2025-09-04 16:47:20,1421080
2025-09-04 16:47:20,1421137
2025-09-04 16:47:20,1421185
2025-09-04 16:47:20,1421367
2025-09-04 16:47:20,1421532
2025-09-04 16:47:20,1421619
2025-09-04 16:47:20,1421745
2025-09-04 16:47:20,1421897
2025-09-04 16:47:20,1422070
2025-09-04 16:47:20,1422176
2025-09-04 16:47:20,1422410
2025-09-04 16:47:20,1422509
2025-09-04 16:47:20,1422611
2025-09-04 16:47:20,1422801
2025-09-04 16:47:20,1422887
2025-09-04 16:47:20,1423038
2025-09-04 16:47:20,1423115
2025-09-04 16:47:20,1423225
2025-09-04 16:47:20,1423358
2025-09-04 16:47:20,1423443
2025-09-04 16:47:20,1423548
2025-09-04 16:47:20,1423726
2025-09-04 16:47:20,1423865
2025-09-04 16:47:20,1423972
2025-09-04 16:47:20,1424042
2025-09-04 16:47:20,1424134
2025-09-04 16:47:20,1424308
2025-09-04 16:47:20,1424464
2025-09-04 16:47:20,1424541
2025-09-04 16:47:20,1424696
2025-09-04 16:47:20,1424802
2025-09-04 16:47:20,1424958
2025-09-04 16:47:20,1425048
2025-09-04 16:47:20,1425293
2025-09-04 16:47:20,1425353
2025-09-04 16:47:20,1425508
2025-09-04 16:47:20,1425704
2025-09-04 16:47:20,1425928
2025-09-04 16:47:20,1426113
2025-09-04 16:47:20,1426100
2025-09-04 16:47:20,1426269
2025-09-04 16:47:20,1425996
2025-09-04 16:47:20,1425654
2025-09-04 16:47:20,1424833
2025-09-04 16:47:20,1424112
2025-09-04 16:47:20,1423349
2025-09-04 16:47:20,1422632
2025-09-04 16:47:20,1421918
2025-09-04 16:47:20,1421246
2025-09-04 16:47:20,1420815
2025-09-04 16:47:20,1420366
2025-09-04 16:47:20,1419843
2025-09-04 16:47:20,1419568
2025-09-04 16:47:20,1419342
2025-09-04 16:47:20,1419194
2025-09-04 16:47:20,1419011
2025-09-04 16:47:20,1418888
2025-09-04 16:47:20,1418849
2025-09-04 16:47:20,1418722
2025-09-04 16:47:20,1418663
2025-09-04 16:47:20,1418564
2025-09-04 16:47:20,1418437
2025-09-04 16:47:20,1418372
2025-09-04 16:47:20,1418386
2025-09-04 16:47:20,1418351
2025-09-04 16:47:20,1418385
2025-09-04 16:47:20,1418402
2025-09-04 16:47:20,1418543
2025-09-04 16:47:20,1418465
2025-09-04 16:47:20,1418586
2025-09-04 16:47:20,1418646
2025-09-04 16:47:20,1418575
2025-09-04 16:47:20,1418563
2025-09-04 16:47:20,1418597
2025-09-04 16:47:20,1418428
2025-09-04 16:47:20,1418487
2025-09-04 16:47:20,1418292
2025-09-04 16:47:20,1418294
2025-09-04 16:47:20,1418186
2025-09-04 16:47:20,1418217
2025-09-04 16:47:20,1418206
2025-09-04 16:47:20,1418115
2025-09-04 16:47:20,1418197
2025-09-04 16:47:20,1418148
2025-09-04 16:47:20,1418275
2025-09-04 16:47:20,1418247
2025-09-04 16:47:20,1418421
2025-09-04 16:47:21,1418387
2025-09-04 16:47:21,1418520
2025-09-04 16:47:21,1418679
2025-09-04 16:47:21,1418640
2025-09-04 16:47:21,1418823
2025-09-04 16:47:21,1418886
2025-09-04 16:47:21,1419065
2025-09-04 16:47:21,1419149
2025-09-04 16:47:21,1419190
2025-09-04 16:47:21,1419342
2025-09-04 16:47:21,1419423
2025-09-04 16:47:21,1419552
2025-09-04 16:47:21,1419608
2025-09-04 16:47:21,1419742
2025-09-04 16:47:21,1419927
2025-09-04 16:47:21,1419976
2025-09-04 16:47:21,1420012
2025-09-04 16:47:21,1420111
2025-09-04 16:47:21,1420202
2025-09-04 16:47:21,1420394
2025-09-04 16:47:21,1420426
2025-09-04 16:47:21,1420587
2025-09-04 16:47:21,1420681
2025-09-04 16:47:21,1420741
2025-09-04 16:47:21,1420867
2025-09-04 16:47:21,1421071
2025-09-04 16:47:21,1421124
2025-09-04 16:47:21,1421355
2025-09-04 16:47:21,1421457
2025-09-04 16:47:21,1421565
2025-09-04 16:47:21,1421719
2025-09-04 16:47:21,1421871
2025-09-04 16:47:21,1421904
2025-09-04 16:47:21,1422079
2025-09-04 16:47:21,1422159
2025-09-04 16:47:21,1422296
2025-09-04 16:47:21,1422375
2025-09-04 16:47:21,1422587
2025-09-04 16:47:21,1422637
2025-09-04 16:47:21,1422734
2025-09-04 16:47:21,1422956
2025-09-04 16:47:21,1423054
2025-09-04 16:47:21,1423056
2025-09-04 16:47:21,1422761
2025-09-04 16:47:21,1422342
2025-09-04 16:47:21,1421553
2025-09-04 16:47:21,1420758
2025-09-04 16:47:21,1420013
2025-09-04 16:47:21,1419353
2025-09-04 16:47:21,1418563
2025-09-04 16:47:21,1418095
2025-09-04 16:47:21,1417435
2025-09-04 16:47:21,1417017
2025-09-04 16:47:21,1416726
2025-09-04 16:47:21,1416284
2025-09-04 16:47:21,1416046
2025-09-04 16:47:21,1415824
2025-09-04 16:47:21,1415753
2025-09-04 16:47:21,1415573
2025-09-04 16:47:21,1415469
2025-09-04 16:47:21,1415378
2025-09-04 16:47:21,1415265
2025-09-04 16:47:21,1415072
2025-09-04 16:47:21,1414932
2025-09-04 16:47:21,1414892
2025-09-04 16:47:21,1414828
2025-09-04 16:47:21,1414811
2025-09-04 16:47:21,1414763
2025-09-04 16:47:21,1414960
2025-09-04 16:47:21,1415010
2025-09-04 16:47:21,1415003
2025-09-04 16:47:21,1415146
2025-09-04 16:47:21,1415228
2025-09-04 16:47:21,1415372
2025-09-04 16:47:21,1415385
2025-09-04 16:47:21,1415457
2025-09-04 16:47:21,1415296
2025-09-04 16:47:21,1415339
2025-09-04 16:47:21,1415307
2025-09-04 16:47:21,1415271
2025-09-04 16:47:21,1415136
2025-09-04 16:47:21,1415150
2025-09-04 16:47:21,1415128
2025-09-04 16:47:21,1415066
2025-09-04 16:47:21,1415046
2025-09-04 16:47:21,1415017
2025-09-04 16:47:21,1414996
2025-09-04 16:47:21,1415108
2025-09-04 16:47:21,1415230
2025-09-04 16:47:21,1415253
2025-09-04 16:47:21,1415295
2025-09-04 16:47:21,1415343
2025-09-04 16:47:21,1415444
2025-09-04 16:47:21,1415517
2025-09-04 16:47:21,1415674
2025-09-04 16:47:21,1415687
2025-09-04 16:47:21,1415767
2025-09-04 16:47:21,1415888
2025-09-04 16:47:21,1416003
2025-09-04 16:47:21,1416093
2025-09-04 16:47:22,1416194
2025-09-04 16:47:22,1416286
2025-09-04 16:47:22,1416423
2025-09-04 16:47:22,1416511
2025-09-04 16:47:22,1416624
2025-09-04 16:47:22,1416689
2025-09-04 16:47:22,1416818
2025-09-04 16:47:22,1416983
2025-09-04 16:47:22,1417083
2025-09-04 16:47:22,1417168
2025-09-04 16:47:22,1417246
2025-09-04 16:47:22,1417416
2025-09-04 16:47:22,1417530
2025-09-04 16:47:22,1417613
2025-09-04 16:47:22,1417702
2025-09-04 16:47:22,1417862
2025-09-04 16:47:22,1417990
2025-09-04 16:47:22,1418111
2025-09-04 16:47:22,1418240
2025-09-04 16:47:22,1418438
2025-09-04 16:47:22,1418553
2025-09-04 16:47:22,1418609
2025-09-04 16:47:22,1418816
2025-09-04 16:47:22,1418963
2025-09-04 16:47:22,1419056
2025-09-04 16:47:22,1419258
2025-09-04 16:47:22,1419389
2025-09-04 16:47:22,1419477
2025-09-04 16:47:22,1419698
2025-09-04 16:47:22,1419816
2025-09-04 16:47:22,1420022
2025-09-04 16:47:22,1420173
2025-09-04 16:47:22,1420322
2025-09-04 16:47:22,1420503
2025-09-04 16:47:22,1420836
2025-09-04 16:47:22,1420889
2025-09-04 16:47:22,1420971
2025-09-04 16:47:22,1420779
2025-09-04 16:47:22,1420438
2025-09-04 16:47:22,1419647
2025-09-04 16:47:22,1419075
2025-09-04 16:47:22,1418301
2025-09-04 16:47:22,1417640
2025-09-04 16:47:22,1417048
2025-09-04 16:47:22,1416506
2025-09-04 16:47:22,1416022
2025-09-04 16:47:22,1415621
2025-09-04 16:47:22,1415321
2025-09-04 16:47:22,1415031
2025-09-04 16:47:22,1414900
2025-09-04 16:47:22,1414727
2025-09-04 16:47:22,1414721
2025-09-04 16:47:22,1414710
2025-09-04 16:47:22,1414674
2025-09-04 16:47:22,1414640
2025-09-04 16:47:22,1414595
2025-09-04 16:47:22,1414498
2025-09-04 16:47:22,1414551
2025-09-04 16:47:22,1414546
2025-09-04 16:47:22,1414456
2025-09-04 16:47:22,1414568
2025-09-04 16:47:22,1414601
2025-09-04 16:47:22,1414665
2025-09-04 16:47:22,1414743
2025-09-04 16:47:22,1414856
2025-09-04 16:47:22,1414864
2025-09-04 16:47:22,1414947
2025-09-04 16:47:22,1415048
2025-09-04 16:47:22,1415028
2025-09-04 16:47:22,1415065
2025-09-04 16:47:22,1415124
2025-09-04 16:47:22,1415012
2025-09-04 16:47:22,1415046
2025-09-04 16:47:22,1415152
2025-09-04 16:47:22,1415078
2025-09-04 16:47:22,1415098
2025-09-04 16:47:22,1415162
2025-09-04 16:47:22,1415163
2025-09-04 16:47:22,1415280
2025-09-04 16:47:22,1415346
2025-09-04 16:47:22,1415443
2025-09-04 16:47:22,1415668
2025-09-04 16:47:22,1415825
2025-09-04 16:47:22,1415908
2025-09-04 16:47:22,1416053
2025-09-04 16:47:22,1416148
2025-09-04 16:47:22,1416376
2025-09-04 16:47:22,1416547
2025-09-04 16:47:22,1416683
2025-09-04 16:47:22,1416781
2025-09-04 16:47:22,1417062
2025-09-04 16:47:22,1417175
2025-09-04 16:47:22,1417354
2025-09-04 16:47:22,1417548
2025-09-04 16:47:22,1417747
2025-09-04 16:47:22,1417893
2025-09-04 16:47:22,1417995
2025-09-04 16:47:22,1418246
2025-09-04 16:47:22,1418460
2025-09-04 16:47:22,1418645
2025-09-04 16:47:23,1418768
2025-09-04 16:47:23,1418867
2025-09-04 16:47:23,1419038
2025-09-04 16:47:23,1419249
2025-09-04 16:47:23,1419361
2025-09-04 16:47:23,1419553
2025-09-04 16:47:23,1419740
2025-09-04 16:47:23,1419897
2025-09-04 16:47:23,1420039
2025-09-04 16:47:23,1420218
2025-09-04 16:47:23,1420357
2025-09-04 16:47:23,1420637
2025-09-04 16:47:23,1420743
2025-09-04 16:47:23,1420984
2025-09-04 16:47:23,1421049
2025-09-04 16:47:23,1421342
2025-09-04 16:47:23,1421518
2025-09-04 16:47:23,1421686
2025-09-04 16:47:23,1421842
2025-09-04 16:47:23,1422077
2025-09-04 16:47:23,1422210
2025-09-04 16:47:23,1422512
2025-09-04 16:47:23,1422666
2025-09-04 16:47:23,1422774
2025-09-04 16:47:23,1423107
2025-09-04 16:47:23,1423278
2025-09-04 16:47:23,1423485
2025-09-04 16:47:23,1423604
2025-09-04 16:47:23,1423710
2025-09-04 16:47:23,1423397
2025-09-04 16:47:23,1422926
2025-09-04 16:47:23,1422288
2025-09-04 16:47:23,1421597
2025-09-04 16:47:23,1420857
2025-09-04 16:47:23,1420337
2025-09-04 16:47:23,1419751
2025-09-04 16:47:23,1419191
2025-09-04 16:47:23,1418826
2025-09-04 16:47:23,1418478
2025-09-04 16:47:23,1418273
2025-09-04 16:47:23,1418114
2025-09-04 16:47:23,1417902
2025-09-04 16:47:23,1417805
2025-09-04 16:47:23,1417808
2025-09-04 16:47:23,1417764
2025-09-04 16:47:23,1417839
2025-09-04 16:47:23,1417791
2025-09-04 16:47:23,1417841
2025-09-04 16:47:23,1417927
2025-09-04 16:47:23,1417975
2025-09-04 16:47:23,1418066
2025-09-04 16:47:23,1418114
2025-09-04 16:47:23,1418307
2025-09-04 16:47:23,1418378
2025-09-04 16:47:23,1418502
2025-09-04 16:47:23,1418596
2025-09-04 16:47:23,1418633
2025-09-04 16:47:23,1418606
2025-09-04 16:47:23,1418691
2025-09-04 16:47:23,1418683
2025-09-04 16:47:23,1418741
2025-09-04 16:47:23,1418628
2025-09-04 16:47:23,1418606
2025-09-04 16:47:23,1418511
2025-09-04 16:47:23,1418504
2025-09-04 16:47:23,1418424
2025-09-04 16:47:23,1418516
2025-09-04 16:47:23,1418383
2025-09-04 16:47:23,1418462
2025-09-04 16:47:23,1418505
2025-09-04 16:47:23,1418541
2025-09-04 16:47:23,1418640
2025-09-04 16:47:23,1418823
2025-09-04 16:47:23,1418820
2025-09-04 16:47:23,1419155
2025-09-04 16:47:23,1419208
2025-09-04 16:47:23,1419483
2025-09-04 16:47:23,1419500
2025-09-04 16:47:23,1419753
2025-09-04 16:47:23,1419772
2025-09-04 16:47:23,1420011
2025-09-04 16:47:23,1420152
2025-09-04 16:47:23,1420297
2025-09-04 16:47:23,1420461
2025-09-04 16:47:23,1420597
2025-09-04 16:47:23,1420654
2025-09-04 16:47:23,1420946
2025-09-04 16:47:23,1421045
2025-09-04 16:47:23,1421098
2025-09-04 16:47:23,1421293
2025-09-04 16:47:23,1421429
2025-09-04 16:47:23,1421473
2025-09-04 16:47:23,1421568
2025-09-04 16:47:23,1421682
2025-09-04 16:47:23,1421839
2025-09-04 16:47:23,1421994
2025-09-04 16:47:23,1421977
2025-09-04 16:47:23,1422176
2025-09-04 16:47:23,1422388
2025-09-04 16:47:23,1422450
2025-09-04 16:47:24,1422554
2025-09-04 16:47:24,1422703
2025-09-04 16:47:24,1422861
2025-09-04 16:47:24,1422954
2025-09-04 16:47:24,1423137
2025-09-04 16:47:24,1423313
2025-09-04 16:47:24,1423564
2025-09-04 16:47:24,1423567
2025-09-04 16:47:24,1423782
2025-09-04 16:47:24,1423964
2025-09-04 16:47:24,1424048
2025-09-04 16:47:24,1424104
2025-09-04 16:47:24,1423989
2025-09-04 16:47:24,1423586
2025-09-04 16:47:24,1423017
2025-09-04 16:47:24,1422344
2025-09-04 16:47:24,1421591
2025-09-04 16:47:24,1420942
2025-09-04 16:47:24,1420362
2025-09-04 16:47:24,1419800
2025-09-04 16:47:24,1419363
2025-09-04 16:47:24,1418996
2025-09-04 16:47:24,1418641
2025-09-04 16:47:24,1418406
2025-09-04 16:47:24,1418175
2025-09-04 16:47:24,1418131
2025-09-04 16:47:24,1417986
2025-09-04 16:47:24,1418067
2025-09-04 16:47:24,1418012
2025-09-04 16:47:24,1417964
2025-09-04 16:47:24,1417975
2025-09-04 16:47:24,1417997
2025-09-04 16:47:24,1417963
2025-09-04 16:47:24,1417942
2025-09-04 16:47:24,1418013
2025-09-04 16:47:24,1418022
2025-09-04 16:47:24,1418036
2025-09-04 16:47:24,1418202
2025-09-04 16:47:24,1418322
2025-09-04 16:47:24,1418260
2025-09-04 16:47:24,1418343
2025-09-04 16:47:24,1418508
2025-09-04 16:47:24,1418301
2025-09-04 16:47:24,1418391
2025-09-04 16:47:24,1418495
2025-09-04 16:47:24,1418407
2025-09-04 16:47:24,1418360
2025-09-04 16:47:24,1418256
2025-09-04 16:47:24,1418242
2025-09-04 16:47:24,1418301
2025-09-04 16:47:24,1418369
2025-09-04 16:47:24,1418372
2025-09-04 16:47:24,1418538
2025-09-04 16:47:24,1418515
2025-09-04 16:47:24,1418613
2025-09-04 16:47:24,1418794
2025-09-04 16:47:24,1418883
2025-09-04 16:47:24,1418922
2025-09-04 16:47:24,1419108
2025-09-04 16:47:24,1419317
2025-09-04 16:47:24,1419423
2025-09-04 16:47:24,1419605
2025-09-04 16:47:24,1419666
2025-09-04 16:47:24,1419808
2025-09-04 16:47:24,1420003
2025-09-04 16:47:24,1420067
2025-09-04 16:47:24,1420253
2025-09-04 16:47:24,1420370
2025-09-04 16:47:24,1420527
2025-09-04 16:47:24,1420641
2025-09-04 16:47:24,1420778
2025-09-04 16:47:24,1420921
2025-09-04 16:47:24,1421011
2025-09-04 16:47:24,1421197
2025-09-04 16:47:24,1421265
2025-09-04 16:47:24,1421353
2025-09-04 16:47:24,1421466
2025-09-04 16:47:24,1421592
2025-09-04 16:47:24,1421740
2025-09-04 16:47:24,1421855
2025-09-04 16:47:24,1422053
2025-09-04 16:47:24,1422093
2025-09-04 16:47:24,1422316
2025-09-04 16:47:24,1422443
2025-09-04 16:47:24,1422540
2025-09-04 16:47:24,1422769
2025-09-04 16:47:24,1422851
2025-09-04 16:47:24,1422984
2025-09-04 16:47:24,1423182
2025-09-04 16:47:24,1423330
2025-09-04 16:47:24,1423494
2025-09-04 16:47:24,1423693
2025-09-04 16:47:24,1423825
2025-09-04 16:47:24,1424058
2025-09-04 16:47:24,1424133
2025-09-04 16:47:24,1424375
2025-09-04 16:47:24,1424476
2025-09-04 16:47:24,1424580
2025-09-04 16:47:24,1424598
2025-09-04 16:47:24,1424267
2025-09-04 16:47:25,1423755
2025-09-04 16:47:25,1422983
2025-09-04 16:47:25,1422276
2025-09-04 16:47:25,1421577
2025-09-04 16:47:25,1420913
2025-09-04 16:47:25,1420369
2025-09-04 16:47:25,1419844
2025-09-04 16:47:25,1419327
2025-09-04 16:47:25,1419057
2025-09-04 16:47:25,1418715
2025-09-04 16:47:25,1418524
2025-09-04 16:47:25,1418353
2025-09-04 16:47:25,1418298
2025-09-04 16:47:25,1418261
2025-09-04 16:47:25,1418225
2025-09-04 16:47:25,1418165
2025-09-04 16:47:25,1418203
2025-09-04 16:47:25,1418153
2025-09-04 16:47:25,1418238
2025-09-04 16:47:25,1418130
2025-09-04 16:47:25,1418303
2025-09-04 16:47:25,1418227
2025-09-04 16:47:25,1418340
2025-09-04 16:47:25,1418442
2025-09-04 16:47:25,1418505
2025-09-04 16:47:25,1418568
2025-09-04 16:47:25,1418738
2025-09-04 16:47:25,1418701
2025-09-04 16:47:25,1418727
2025-09-04 16:47:25,1418732
2025-09-04 16:47:25,1418732
2025-09-04 16:47:25,1418709
2025-09-04 16:47:25,1418678
2025-09-04 16:47:25,1418610
2025-09-04 16:47:25,1418602
2025-09-04 16:47:25,1418673
2025-09-04 16:47:25,1418555
2025-09-04 16:47:25,1418610
2025-09-04 16:47:25,1418690
2025-09-04 16:47:25,1418738
2025-09-04 16:47:25,1418921
2025-09-04 16:47:25,1418903
2025-09-04 16:47:25,1419032
2025-09-04 16:47:25,1419185
2025-09-04 16:47:25,1419373
2025-09-04 16:47:25,1419461
2025-09-04 16:47:25,1419679
2025-09-04 16:47:25,1419650
2025-09-04 16:47:25,1419982
2025-09-04 16:47:25,1419961
2025-09-04 16:47:25,1420256
2025-09-04 16:47:25,1420373
2025-09-04 16:47:25,1420483
2025-09-04 16:47:25,1420647
2025-09-04 16:47:25,1420828
2025-09-04 16:47:25,1421026
2025-09-04 16:47:25,1421176
2025-09-04 16:47:25,1421349
2025-09-04 16:47:25,1421601
2025-09-04 16:47:25,1421697
2025-09-04 16:47:25,1421860
2025-09-04 16:47:25,1422062
2025-09-04 16:47:25,1422227
2025-09-04 16:47:25,1422407
2025-09-04 16:47:25,1422499
2025-09-04 16:47:25,1422718
2025-09-04 16:47:25,1422871
2025-09-04 16:47:25,1423027
2025-09-04 16:47:25,1423278
2025-09-04 16:47:25,1423393
2025-09-04 16:47:25,1423616
2025-09-04 16:47:25,1423787
2025-09-04 16:47:25,1423901
2025-09-04 16:47:25,1424081
2025-09-04 16:47:25,1424384
2025-09-04 16:47:25,1424467
2025-09-04 16:47:25,1424710
2025-09-04 16:47:25,1424889
2025-09-04 16:47:25,1425148
2025-09-04 16:47:25,1425346
2025-09-04 16:47:25,1425594
2025-09-04 16:47:25,1425697
2025-09-04 16:47:25,1425966
2025-09-04 16:47:25,1426041
2025-09-04 16:47:25,1425998
2025-09-04 16:47:25,1425685
2025-09-04 16:47:25,1424997
2025-09-04 16:47:25,1424347
2025-09-04 16:47:25,1423729
2025-09-04 16:47:25,1422972
2025-09-04 16:47:25,1422439
2025-09-04 16:47:25,1421881
2025-09-04 16:47:25,1421403
2025-09-04 16:47:25,1421025
2025-09-04 16:47:25,1420820
2025-09-04 16:47:25,1420516
2025-09-04 16:47:25,1420385
2025-09-04 16:47:25,1420216
2025-09-04 16:47:25,1420237
2025-09-04 16:47:26,1420271
2025-09-04 16:47:26,1420401
2025-09-04 16:47:26,1420330
2025-09-04 16:47:26,1420491
2025-09-04 16:47:26,1420553
2025-09-04 16:47:26,1420602
2025-09-04 16:47:26,1420696
2025-09-04 16:47:26,1420880
2025-09-04 16:47:26,1421029
2025-09-04 16:47:26,1421236
2025-09-04 16:47:26,1421372
2025-09-04 16:47:26,1421594
2025-09-04 16:47:26,1421640
2025-09-04 16:47:26,1421780
2025-09-04 16:47:26,1421852
2025-09-04 16:47:26,1421853
2025-09-04 16:47:26,1421883
2025-09-04 16:47:26,1421862
2025-09-04 16:47:26,1421877
2025-09-04 16:47:26,1422009
2025-09-04 16:47:26,1421949
2025-09-04 16:47:26,1421931
2025-09-04 16:47:26,1421951
2025-09-04 16:47:26,1422002
2025-09-04 16:47:26,1422181
2025-09-04 16:47:26,1422167
2025-09-04 16:47:26,1422276
2025-09-04 16:47:26,1422492
2025-09-04 16:47:26,1422516
2025-09-04 16:47:26,1422763
2025-09-04 16:47:26,1422922
2025-09-04 16:47:26,1423112
2025-09-04 16:47:26,1423195
2025-09-04 16:47:26,1423355
2025-09-04 16:47:26,1423630
2025-09-04 16:47:26,1423737
2025-09-04 16:47:26,1423982
2025-09-04 16:47:26,1424052
2025-09-04 16:47:26,1424310
2025-09-04 16:47:26,1424513
2025-09-04 16:47:26,1424688
2025-09-04 16:47:26,1424905
2025-09-04 16:47:26,1424993
2025-09-04 16:47:26,1425198
2025-09-04 16:47:26,1425336
2025-09-04 16:47:26,1425403
2025-09-04 16:47:26,1425586
2025-09-04 16:47:26,1425741
2025-09-04 16:47:26,1425932
2025-09-04 16:47:26,1425990
2025-09-04 16:47:26,1426130
2025-09-04 16:47:26,1426170
2025-09-04 16:47:26,1426310
2025-09-04 16:47:26,1426451
2025-09-04 16:47:26,1426640
2025-09-04 16:47:26,1426709
2025-09-04 16:47:26,1426909
2025-09-04 16:47:26,1427047
2025-09-04 16:47:26,1427153
2025-09-04 16:47:26,1427266
2025-09-04 16:47:26,1427520
2025-09-04 16:47:26,1427690
2025-09-04 16:47:26,1427894
2025-09-04 16:47:26,1427968
2025-09-04 16:47:26,1428119
2025-09-04 16:47:26,1428175
2025-09-04 16:47:26,1427756
2025-09-04 16:47:26,1427274
2025-09-04 16:47:26,1426731
2025-09-04 16:47:26,1426111
2025-09-04 16:47:26,1425975
2025-09-04 16:47:26,1425884
2025-09-04 16:47:26,1425968
2025-09-04 16:47:26,1426069
2025-09-04 16:47:26,1425897
2025-09-04 16:47:26,1425887
2025-09-04 16:47:26,1425856
2025-09-04 16:47:26,1425963
2025-09-04 16:47:26,1425978
2025-09-04 16:47:26,1426006
2025-09-04 16:47:26,1426139
2025-09-04 16:47:26,1426143
2025-09-04 16:47:26,1426147
2025-09-04 16:47:26,1426168
2025-09-04 16:47:26,1426265
2025-09-04 16:47:26,1426210
2025-09-04 16:47:26,1426276
2025-09-04 16:47:26,1426179
2025-09-04 16:47:26,1426240
2025-09-04 16:47:26,1426301
2025-09-04 16:47:26,1426205
2025-09-04 16:47:26,1426120
2025-09-04 16:47:26,1426150
2025-09-04 16:47:26,1426028
2025-09-04 16:47:26,1425882
2025-09-04 16:47:26,1425908
2025-09-04 16:47:26,1425937
2025-09-04 16:47:26,1426192
2025-09-04 16:47:26,1426195
2025-09-04 16:47:26,1426311
2025-09-04 16:47:27,1426383
2025-09-04 16:47:27,1426509
2025-09-04 16:47:27,1426473
2025-09-04 16:47:27,1426554
2025-09-04 16:47:27,1426633
2025-09-04 16:47:27,1426662
2025-09-04 16:47:27,1426955
2025-09-04 16:47:27,1427051
2025-09-04 16:47:27,1427125
2025-09-04 16:47:27,1427113
2025-09-04 16:47:27,1427310
2025-09-04 16:47:27,1427247
2025-09-04 16:47:27,1427324
2025-09-04 16:47:27,1427343
2025-09-04 16:47:27,1427423
2025-09-04 16:47:27,1427470
2025-09-04 16:47:27,1427444
2025-09-04 16:47:27,1427462
2025-09-04 16:47:27,1427487
2025-09-04 16:47:27,1427504
2025-09-04 16:47:27,1427569
2025-09-04 16:47:27,1427553
2025-09-04 16:47:27,1427671
2025-09-04 16:47:27,1427640
2025-09-04 16:47:27,1427721
2025-09-04 16:47:27,1427745
2025-09-04 16:47:27,1427874
2025-09-04 16:47:27,1427879
2025-09-04 16:47:27,1427903
2025-09-04 16:47:27,1428026
2025-09-04 16:47:27,1428108
2025-09-04 16:47:27,1428145
2025-09-04 16:47:27,1428262
2025-09-04 16:47:27,1428379
2025-09-04 16:47:27,1428428
2025-09-04 16:47:27,1428600
2025-09-04 16:47:27,1428645
2025-09-04 16:47:27,1428795
2025-09-04 16:47:27,1428910
2025-09-04 16:47:27,1428948
2025-09-04 16:47:27,1429118
2025-09-04 16:47:27,1429307
2025-09-04 16:47:27,1429285
2025-09-04 16:47:27,1429166
2025-09-04 16:47:27,1428853
2025-09-04 16:47:27,1428277
2025-09-04 16:47:27,1427585
2025-09-04 16:47:27,1426683
2025-09-04 16:47:27,1425997
2025-09-04 16:47:27,1425384
2025-09-04 16:47:27,1424655
2025-09-04 16:47:27,1424173
2025-09-04 16:47:27,1423729
2025-09-04 16:47:27,1423414
2025-09-04 16:47:27,1422953
2025-09-04 16:47:27,1422808
2025-09-04 16:47:27,1422618
2025-09-04 16:47:27,1422512
2025-09-04 16:47:27,1422452
2025-09-04 16:47:27,1422440
2025-09-04 16:47:27,1422431
2025-09-04 16:47:27,1422461
2025-09-04 16:47:27,1422393
2025-09-04 16:47:27,1422380
2025-09-04 16:47:27,1422349
2025-09-04 16:47:27,1422454
2025-09-04 16:47:27,1422493
2025-09-04 16:47:27,1422641
2025-09-04 16:47:27,1422642
2025-09-04 16:47:27,1422745
2025-09-04 16:47:27,1422817
2025-09-04 16:47:27,1422773
2025-09-04 16:47:27,1422800
2025-09-04 16:47:27,1422826
2025-09-04 16:47:27,1422801
2025-09-04 16:47:27,1422725
2025-09-04 16:47:27,1422627
2025-09-04 16:47:27,1422620
2025-09-04 16:47:27,1422573
2025-09-04 16:47:27,1422516
2025-09-04 16:47:27,1422432
2025-09-04 16:47:27,1422446
2025-09-04 16:47:27,1422477
2025-09-04 16:47:27,1422382
2025-09-04 16:47:27,1422527
2025-09-04 16:47:27,1422519
2025-09-04 16:47:27,1422599
2025-09-04 16:47:27,1422770
2025-09-04 16:47:27,1422778
2025-09-04 16:47:27,1422886
2025-09-04 16:47:27,1422977
2025-09-04 16:47:27,1423054
2025-09-04 16:47:27,1423159
2025-09-04 16:47:27,1423282
2025-09-04 16:47:27,1423409
2025-09-04 16:47:27,1423536
2025-09-04 16:47:27,1423548
2025-09-04 16:47:27,1423756
2025-09-04 16:47:27,1423899
2025-09-04 16:47:27,1423908
2025-09-04 16:47:28,1423799
2025-09-04 16:47:28,1423704
2025-09-04 16:47:28,1423431
2025-09-04 16:47:28,1423231
2025-09-04 16:47:28,1423050
2025-09-04 16:47:28,1423033
2025-09-04 16:47:28,1423078
2025-09-04 16:47:28,1423166
2025-09-04 16:47:28,1423281
2025-09-04 16:47:28,1423295
2025-09-04 16:47:28,1423541
2025-09-04 16:47:28,1423688
2025-09-04 16:47:28,1423930
2025-09-04 16:47:28,1424053
2025-09-04 16:47:28,1424303
2025-09-04 16:47:28,1424529
2025-09-04 16:47:28,1424820
2025-09-04 16:47:28,1424986
2025-09-04 16:47:28,1425211
2025-09-04 16:47:28,1425417
2025-09-04 16:47:28,1425585
2025-09-04 16:47:28,1425673
2025-09-04 16:47:28,1425554
2025-09-04 16:47:28,1425190
2025-09-04 16:47:28,1424564
2025-09-04 16:47:28,1423864
2025-09-04 16:47:28,1423169
2025-09-04 16:47:28,1422587
2025-09-04 16:47:28,1421913
2025-09-04 16:47:28,1421432
2025-09-04 16:47:28,1420922
2025-09-04 16:47:28,1420465
2025-09-04 16:47:28,1420174
2025-09-04 16:47:28,1419892
2025-09-04 16:47:28,1419709
2025-09-04 16:47:28,1419496
2025-09-04 16:47:28,1419386
2025-09-04 16:47:28,1419377
2025-09-04 16:47:28,1419268
2025-09-04 16:47:28,1419126
2025-09-04 16:47:28,1419086
2025-09-04 16:47:28,1419088
2025-09-04 16:47:28,1419082
2025-09-04 16:47:28,1419071
2025-09-04 16:47:28,1418993
2025-09-04 16:47:28,1419071
2025-09-04 16:47:28,1419106
2025-09-04 16:47:28,1419085
2025-09-04 16:47:28,1419109
2025-09-04 16:47:28,1419169
2025-09-04 16:47:28,1419239
2025-09-04 16:47:28,1419205
2025-09-04 16:47:28,1419192
2025-09-04 16:47:28,1419142
2025-09-04 16:47:28,1419146
2025-09-04 16:47:28,1419154
2025-09-04 16:47:28,1419054
2025-09-04 16:47:28,1418997
2025-09-04 16:47:28,1418981
2025-09-04 16:47:28,1418997
2025-09-04 16:47:28,1419031
2025-09-04 16:47:28,1418996
2025-09-04 16:47:28,1419135
2025-09-04 16:47:28,1419160
2025-09-04 16:47:28,1419189
2025-09-04 16:47:28,1419308
2025-09-04 16:47:28,1419352
2025-09-04 16:47:28,1419368
2025-09-04 16:47:28,1419262
2025-09-04 16:47:28,1419282
2025-09-04 16:47:28,1419373
2025-09-04 16:47:28,1419494
2025-09-04 16:47:28,1419698
2025-09-04 16:47:28,1419767
2025-09-04 16:47:28,1419966
2025-09-04 16:47:28,1420110
2025-09-04 16:47:28,1420338
2025-09-04 16:47:28,1420487
2025-09-04 16:47:28,1420701
2025-09-04 16:47:28,1420820
2025-09-04 16:47:28,1421016
2025-09-04 16:47:28,1421202
2025-09-04 16:47:28,1421356
2025-09-04 16:47:28,1421507
2025-09-04 16:47:28,1421676
2025-09-04 16:47:28,1421853
2025-09-04 16:47:28,1422003
2025-09-04 16:47:28,1422271
2025-09-04 16:47:28,1422376
2025-09-04 16:47:28,1422524
2025-09-04 16:47:28,1422743
2025-09-04 16:47:28,1422847
2025-09-04 16:47:28,1422961
2025-09-04 16:47:28,1423130
2025-09-04 16:47:28,1423385
2025-09-04 16:47:28,1423542
2025-09-04 16:47:28,1423751
2025-09-04 16:47:28,1423796
2025-09-04 16:47:28,1423804
2025-09-04 16:47:28,1423857
2025-09-04 16:47:29,1423431
2025-09-04 16:47:29,1422871
2025-09-04 16:47:29,1422168
2025-09-04 16:47:29,1421464
2025-09-04 16:47:29,1420886
2025-09-04 16:47:29,1420244
2025-09-04 16:47:29,1419700
2025-09-04 16:47:29,1419271
2025-09-04 16:47:29,1418914
2025-09-04 16:47:29,1418650
2025-09-04 16:47:29,1418451
2025-09-04 16:47:29,1418377
2025-09-04 16:47:29,1418255
2025-09-04 16:47:29,1418148
2025-09-04 16:47:29,1418134
2025-09-04 16:47:29,1418167
2025-09-04 16:47:29,1418162
2025-09-04 16:47:29,1418181
2025-09-04 16:47:29,1418256
2025-09-04 16:47:29,1418200
2025-09-04 16:47:29,1418318
2025-09-04 16:47:29,1418361
2025-09-04 16:47:29,1418475
2025-09-04 16:47:29,1418564
2025-09-04 16:47:29,1418741
2025-09-04 16:47:29,1418841
2025-09-04 16:47:29,1418888
2025-09-04 16:47:29,1418858
2025-09-04 16:47:29,1418943
2025-09-04 16:47:29,1418940
2025-09-04 16:47:29,1418953
2025-09-04 16:47:29,1418832
2025-09-04 16:47:29,1418879
2025-09-04 16:47:29,1418859
2025-09-04 16:47:29,1418870
2025-09-04 16:47:29,1418742
2025-09-04 16:47:29,1418770
2025-09-04 16:47:29,1418982
2025-09-04 16:47:29,1418890
2025-09-04 16:47:29,1418984
2025-09-04 16:47:29,1419085
2025-09-04 16:47:29,1419136
2025-09-04 16:47:29,1419283
2025-09-04 16:47:29,1419482
2025-09-04 16:47:29,1419592
2025-09-04 16:47:29,1419828
2025-09-04 16:47:29,1419871
2025-09-04 16:47:29,1420049
2025-09-04 16:47:29,1420173
2025-09-04 16:47:29,1420288
2025-09-04 16:47:29,1420417
2025-09-04 16:47:29,1420638
2025-09-04 16:47:29,1420691
2025-09-04 16:47:29,1420876
2025-09-04 16:47:29,1420927
2025-09-04 16:47:29,1421110
2025-09-04 16:47:29,1421266
2025-09-04 16:47:29,1421382
2025-09-04 16:47:29,1421467
2025-09-04 16:47:29,1421564
2025-09-04 16:47:29,1421734
2025-09-04 16:47:29,1421723
2025-09-04 16:47:29,1421917
2025-09-04 16:47:29,1421967
2025-09-04 16:47:29,1422117
2025-09-04 16:47:29,1422228
2025-09-04 16:47:29,1422415
2025-09-04 16:47:29,1422475
2025-09-04 16:47:29,1422571
2025-09-04 16:47:29,1422761
2025-09-04 16:47:29,1422821
2025-09-04 16:47:29,1423059
2025-09-04 16:47:29,1423233
2025-09-04 16:47:29,1423351
2025-09-04 16:47:29,1423281
2025-09-04 16:47:29,1423208
2025-09-04 16:47:29,1422871
2025-09-04 16:47:29,1422317
2025-09-04 16:47:29,1421570
2025-09-04 16:47:29,1420995
2025-09-04 16:47:29,1420350
2025-09-04 16:47:29,1419738
2025-09-04 16:47:29,1419316
2025-09-04 16:47:29,1418861
2025-09-04 16:47:29,1418456
2025-09-04 16:47:29,1418256
2025-09-04 16:47:29,1418040
2025-09-04 16:47:29,1417935
2025-09-04 16:47:29,1417702
2025-09-04 16:47:29,1417757
2025-09-04 16:47:29,1417791
2025-09-04 16:47:29,1417749
2025-09-04 16:47:29,1417828
2025-09-04 16:47:29,1417782
2025-09-04 16:47:29,1417932
2025-09-04 16:47:29,1417943
2025-09-04 16:47:29,1418048
2025-09-04 16:47:29,1418165
2025-09-04 16:47:29,1418257
2025-09-04 16:47:29,1418328
2025-09-04 16:47:30,1418460
2025-09-04 16:47:30,1418530
2025-09-04 16:47:30,1418534
2025-09-04 16:47:30,1418568
2025-09-04 16:47:30,1418517
2025-09-04 16:47:30,1418414
2025-09-04 16:47:30,1418452
2025-09-04 16:47:30,1418328
2025-09-04 16:47:30,1418248
2025-09-04 16:47:30,1418211
2025-09-04 16:47:30,1418164
2025-09-04 16:47:30,1418111
2025-09-04 16:47:30,1418124
2025-09-04 16:47:30,1418153
2025-09-04 16:47:30,1418097
2025-09-04 16:47:30,1418220
2025-09-04 16:47:30,1418276
2025-09-04 16:47:30,1418360
2025-09-04 16:47:30,1418496
2025-09-04 16:47:30,1418638
2025-09-04 16:47:30,1418659
2025-09-04 16:47:30,1418802
2025-09-04 16:47:30,1418918
2025-09-04 16:47:30,1419043
2025-09-04 16:47:30,1419224
2025-09-04 16:47:30,1419246
2025-09-04 16:47:30,1419451
2025-09-04 16:47:30,1419447
2025-09-04 16:47:30,1419564
2025-09-04 16:47:30,1419756
2025-09-04 16:47:30,1419747
2025-09-04 16:47:30,1419890
2025-09-04 16:47:30,1420062
2025-09-04 16:47:30,1420145
2025-09-04 16:47:30,1420247
2025-09-04 16:47:30,1420363
2025-09-04 16:47:30,1420332
2025-09-04 16:47:30,1420451
2025-09-04 16:47:30,1420459
2025-09-04 16:47:30,1420786
2025-09-04 16:47:30,1420806
2025-09-04 16:47:30,1420885
2025-09-04 16:47:30,1421051
2025-09-04 16:47:30,1421155
2025-09-04 16:47:30,1421293
2025-09-04 16:47:30,1421462
2025-09-04 16:47:30,1421593
2025-09-04 16:47:30,1421513
2025-09-04 16:47:30,1421665
2025-09-04 16:47:30,1421757
2025-09-04 16:47:30,1421604
2025-09-04 16:47:30,1421235
2025-09-04 16:47:30,1420627
2025-09-04 16:47:30,1419882
2025-09-04 16:47:30,1419249
2025-09-04 16:47:30,1418508
2025-09-04 16:47:30,1417976
2025-09-04 16:47:30,1417280
2025-09-04 16:47:30,1416912
2025-09-04 16:47:30,1416547
2025-09-04 16:47:30,1416268
2025-09-04 16:47:30,1415932
2025-09-04 16:47:30,1415863
2025-09-04 16:47:30,1415799
2025-09-04 16:47:30,1415696
2025-09-04 16:47:30,1415702
2025-09-04 16:47:30,1415611
2025-09-04 16:47:30,1415587
2025-09-04 16:47:30,1415662
2025-09-04 16:47:30,1415578
2025-09-04 16:47:30,1415648
2025-09-04 16:47:30,1415615
2025-09-04 16:47:30,1415609
2025-09-04 16:47:30,1415631
2025-09-04 16:47:30,1415768
2025-09-04 16:47:30,1415838
2025-09-04 16:47:30,1415853
2025-09-04 16:47:30,1416009
2025-09-04 16:47:30,1415890
2025-09-04 16:47:30,1415917
2025-09-04 16:47:30,1415983
2025-09-04 16:47:30,1415928
2025-09-04 16:47:30,1415947
2025-09-04 16:47:30,1415828
2025-09-04 16:47:30,1415769
2025-09-04 16:47:30,1415797
2025-09-04 16:47:30,1415754
2025-09-04 16:47:30,1415672
2025-09-04 16:47:30,1415805
2025-09-04 16:47:30,1415705
2025-09-04 16:47:30,1415782
2025-09-04 16:47:30,1415818
2025-09-04 16:47:30,1415996
2025-09-04 16:47:30,1416020
2025-09-04 16:47:30,1416191
2025-09-04 16:47:30,1416274
2025-09-04 16:47:30,1416385
2025-09-04 16:47:30,1416457
2025-09-04 16:47:30,1416595
2025-09-04 16:47:31,1416665
2025-09-04 16:47:31,1416840
2025-09-04 16:47:31,1416986
2025-09-04 16:47:31,1417103
2025-09-04 16:47:31,1417250
2025-09-04 16:47:31,1417394
2025-09-04 16:47:31,1417450
2025-09-04 16:47:31,1417555
2025-09-04 16:47:31,1417766
2025-09-04 16:47:31,1417795
2025-09-04 16:47:31,1417949
2025-09-04 16:47:31,1418064
2025-09-04 16:47:31,1418098
2025-09-04 16:47:31,1418335
2025-09-04 16:47:31,1418428
2025-09-04 16:47:31,1418570
2025-09-04 16:47:31,1418680
2025-09-04 16:47:31,1418830
2025-09-04 16:47:31,1418897
2025-09-04 16:47:31,1419014
2025-09-04 16:47:31,1419220
2025-09-04 16:47:31,1419330
2025-09-04 16:47:31,1419522
2025-09-04 16:47:31,1419644
2025-09-04 16:47:31,1419754
2025-09-04 16:47:31,1419867
2025-09-04 16:47:31,1420074
2025-09-04 16:47:31,1420135
2025-09-04 16:47:31,1420005
2025-09-04 16:47:31,1419624
2025-09-04 16:47:31,1419105
2025-09-04 16:47:31,1418370
2025-09-04 16:47:31,1417681
2025-09-04 16:47:31,1417077
2025-09-04 16:47:31,1416494
2025-09-04 16:47:31,1415987
2025-09-04 16:47:31,1415715
2025-09-04 16:47:31,1415449
2025-09-04 16:47:31,1415384
2025-09-04 16:47:31,1415303
2025-09-04 16:47:31,1415220
2025-09-04 16:47:31,1415218
2025-09-04 16:47:31,1415233
2025-09-04 16:47:31,1415218
2025-09-04 16:47:31,1415305
2025-09-04 16:47:31,1415289
2025-09-04 16:47:31,1415343
2025-09-04 16:47:31,1415294
2025-09-04 16:47:31,1415285
2025-09-04 16:47:31,1415183
2025-09-04 16:47:31,1415251
2025-09-04 16:47:31,1415353
2025-09-04 16:47:31,1415302
2025-09-04 16:47:31,1415492
2025-09-04 16:47:31,1415521
2025-09-04 16:47:31,1415506
2025-09-04 16:47:31,1415603
2025-09-04 16:47:31,1415615
2025-09-04 16:47:31,1415660
2025-09-04 16:47:31,1415628
2025-09-04 16:47:31,1415682
2025-09-04 16:47:31,1415675
2025-09-04 16:47:31,1415694
2025-09-04 16:47:31,1415647
2025-09-04 16:47:31,1415695
2025-09-04 16:47:31,1415678
2025-09-04 16:47:31,1415779
2025-09-04 16:47:31,1415824
2025-09-04 16:47:31,1415925
2025-09-04 16:47:31,1416062
2025-09-04 16:47:31,1416173
2025-09-04 16:47:31,1416246
2025-09-04 16:47:31,1416494
2025-09-04 16:47:31,1416522
2025-09-04 16:47:31,1416730
2025-09-04 16:47:31,1416890
2025-09-04 16:47:31,1416974
2025-09-04 16:47:31,1417217
2025-09-04 16:47:31,1417384
2025-09-04 16:47:31,1417527
2025-09-04 16:47:31,1417738
2025-09-04 16:47:31,1417774
2025-09-04 16:47:31,1417976
2025-09-04 16:47:31,1418088
2025-09-04 16:47:31,1418234
2025-09-04 16:47:31,1418419
2025-09-04 16:47:31,1418502
2025-09-04 16:47:31,1418620
2025-09-04 16:47:31,1418733
2025-09-04 16:47:31,1418820
2025-09-04 16:47:31,1419133
2025-09-04 16:47:31,1419273
2025-09-04 16:47:31,1419403
2025-09-04 16:47:31,1419610
2025-09-04 16:47:31,1419722
2025-09-04 16:47:31,1419904
2025-09-04 16:47:31,1420068
2025-09-04 16:47:31,1420155
2025-09-04 16:47:31,1420347
2025-09-04 16:47:31,1420598
2025-09-04 16:47:32,1420727
2025-09-04 16:47:32,1420936
2025-09-04 16:47:32,1421211
2025-09-04 16:47:32,1421340
2025-09-04 16:47:32,1421519
2025-09-04 16:47:32,1421623
2025-09-04 16:47:32,1421764
2025-09-04 16:47:32,1421595
2025-09-04 16:47:32,1421164
2025-09-04 16:47:32,1420697
2025-09-04 16:47:32,1419959
2025-09-04 16:47:32,1419333
2025-09-04 16:47:32,1418697
2025-09-04 16:47:32,1418281
2025-09-04 16:47:32,1417810
2025-09-04 16:47:32,1417497
2025-09-04 16:47:32,1417232
2025-09-04 16:47:32,1416888
2025-09-04 16:47:32,1416750
2025-09-04 16:47:32,1416755
2025-09-04 16:47:32,1416741
2025-09-04 16:47:32,1416639
2025-09-04 16:47:32,1416849
2025-09-04 16:47:32,1416885
2025-09-04 16:47:32,1416842
2025-09-04 16:47:32,1416991
2025-09-04 16:47:32,1417040
2025-09-04 16:47:32,1417197
2025-09-04 16:47:32,1417307
2025-09-04 16:47:32,1417430
2025-09-04 16:47:32,1417579
2025-09-04 16:47:32,1417738
2025-09-04 16:47:32,1417907
2025-09-04 16:47:32,1418038
2025-09-04 16:47:32,1418156
2025-09-04 16:47:32,1418144
2025-09-04 16:47:32,1418265
2025-09-04 16:47:32,1418261
2025-09-04 16:47:32,1418299
2025-09-04 16:47:32,1418264
2025-09-04 16:47:32,1418347
2025-09-04 16:47:32,1418305
2025-09-04 16:47:32,1418318
2025-09-04 16:47:32,1418266
2025-09-04 16:47:32,1418368
2025-09-04 16:47:32,1418435
2025-09-04 16:47:32,1418417
2025-09-04 16:47:32,1418597
2025-09-04 16:47:32,1418729
2025-09-04 16:47:32,1418836
2025-09-04 16:47:32,1418969
2025-09-04 16:47:32,1419090
2025-09-04 16:47:32,1419238
2025-09-04 16:47:32,1419590
2025-09-04 16:47:32,1419784
2025-09-04 16:47:32,1419896
2025-09-04 16:47:32,1420131
2025-09-04 16:47:32,1420259
2025-09-04 16:47:32,1420398
2025-09-04 16:47:32,1420486
2025-09-04 16:47:32,1420636
2025-09-04 16:47:32,1420866
2025-09-04 16:47:32,1420890
2025-09-04 16:47:32,1421133
2025-09-04 16:47:32,1421208
2025-09-04 16:47:32,1421292
2025-09-04 16:47:32,1421400
2025-09-04 16:47:32,1421579
2025-09-04 16:47:32,1421661
2025-09-04 16:47:32,1421682
2025-09-04 16:47:32,1421869
2025-09-04 16:47:32,1422022
2025-09-04 16:47:32,1422162
2025-09-04 16:47:32,1422357
2025-09-04 16:47:32,1422517
2025-09-04 16:47:32,1422675
2025-09-04 16:47:32,1422818
2025-09-04 16:47:32,1422864
2025-09-04 16:47:32,1423181
2025-09-04 16:47:32,1423227
2025-09-04 16:47:32,1423358
2025-09-04 16:47:32,1423383
2025-09-04 16:47:32,1423126
2025-09-04 16:47:32,1422681
2025-09-04 16:47:32,1422100
2025-09-04 16:47:32,1421468
2025-09-04 16:47:32,1420875
2025-09-04 16:47:32,1420355
2025-09-04 16:47:32,1419923
2025-09-04 16:47:32,1419564
2025-09-04 16:47:32,1419257
2025-09-04 16:47:32,1419011
2025-09-04 16:47:32,1418775
2025-09-04 16:47:32,1418730
2025-09-04 16:47:32,1418622
2025-09-04 16:47:32,1418677
2025-09-04 16:47:32,1418614
2025-09-04 16:47:32,1418750
2025-09-04 16:47:32,1418826
2025-09-04 16:47:32,1418737
2025-09-04 16:47:33,1418889
2025-09-04 16:47:33,1419032
2025-09-04 16:47:33,1418954
2025-09-04 16:47:33,1419152
2025-09-04 16:47:33,1419280
2025-09-04 16:47:33,1419377
2025-09-04 16:47:33,1419555
2025-09-04 16:47:33,1419630
2025-09-04 16:47:33,1419711
2025-09-04 16:47:33,1419814
2025-09-04 16:47:33,1419871
2025-09-04 16:47:33,1419907
2025-09-04 16:47:33,1419839
2025-09-04 16:47:33,1419880
2025-09-04 16:47:33,1419822
2025-09-04 16:47:33,1419839
2025-09-04 16:47:33,1419879
2025-09-04 16:47:33,1419901
2025-09-04 16:47:33,1419852
2025-09-04 16:47:33,1419970
2025-09-04 16:47:33,1419959
2025-09-04 16:47:33,1420069
2025-09-04 16:47:33,1420187
2025-09-04 16:47:33,1420249
2025-09-04 16:47:33,1420450
2025-09-04 16:47:33,1420593
2025-09-04 16:47:33,1420669
2025-09-04 16:47:33,1420779
2025-09-04 16:47:33,1421043
2025-09-04 16:47:33,1421180
2025-09-04 16:47:33,1421320
2025-09-04 16:47:33,1421461
2025-09-04 16:47:33,1421534
2025-09-04 16:47:33,1421724
2025-09-04 16:47:33,1421840
2025-09-04 16:47:33,1422010
2025-09-04 16:47:33,1422096
2025-09-04 16:47:33,1422231
2025-09-04 16:47:33,1422416
2025-09-04 16:47:33,1422507
2025-09-04 16:47:33,1422594
2025-09-04 16:47:33,1422647
2025-09-04 16:47:33,1422863
2025-09-04 16:47:33,1423067
2025-09-04 16:47:33,1423032
2025-09-04 16:47:33,1423248
2025-09-04 16:47:33,1423334
2025-09-04 16:47:33,1423489
2025-09-04 16:47:33,1423551
2025-09-04 16:47:33,1423770
2025-09-04 16:47:33,1423831
2025-09-04 16:47:33,1424159
2025-09-04 16:47:33,1424255
2025-09-04 16:47:33,1424393
2025-09-04 16:47:33,1424686
2025-09-04 16:47:33,1424715
2025-09-04 16:47:33,1424780
2025-09-04 16:47:33,1424908
2025-09-04 16:47:33,1424672
2025-09-04 16:47:33,1424234
2025-09-04 16:47:33,1423749
2025-09-04 16:47:33,1423032
2025-09-04 16:47:33,1422333
2025-09-04 16:47:33,1421818
2025-09-04 16:47:33,1421276
2025-09-04 16:47:33,1420787
2025-09-04 16:47:33,1420361
2025-09-04 16:47:33,1420089
2025-09-04 16:47:33,1419842
2025-09-04 16:47:33,1419677
2025-09-04 16:47:33,1419591
2025-09-04 16:47:33,1419512
2025-09-04 16:47:33,1419615
2025-09-04 16:47:33,1419564
2025-09-04 16:47:33,1419588
2025-09-04 16:47:33,1419526
2025-09-04 16:47:33,1419651
2025-09-04 16:47:33,1419600
2025-09-04 16:47:33,1419692
2025-09-04 16:47:33,1419666
2025-09-04 16:47:33,1419719
2025-09-04 16:47:33,1419893
2025-09-04 16:47:33,1419953
2025-09-04 16:47:33,1420098
2025-09-04 16:47:33,1420137
2025-09-04 16:47:33,1420143
2025-09-04 16:47:33,1420257
2025-09-04 16:47:33,1420309
2025-09-04 16:47:33,1420385
2025-09-04 16:47:33,1420312
2025-09-04 16:47:33,1420360
2025-09-04 16:47:33,1420353
2025-09-04 16:47:33,1420367
2025-09-04 16:47:33,1420359
2025-09-04 16:47:33,1420343
2025-09-04 16:47:33,1420484
2025-09-04 16:47:33,1420447
2025-09-04 16:47:33,1420436
2025-09-04 16:47:33,1420507
2025-09-04 16:47:33,1420619
2025-09-04 16:47:34,1420784
2025-09-04 16:47:34,1420871
2025-09-04 16:47:34,1420979
2025-09-04 16:47:34,1421212
2025-09-04 16:47:34,1421237
2025-09-04 16:47:34,1421396
2025-09-04 16:47:34,1421540
2025-09-04 16:47:34,1421614
2025-09-04 16:47:34,1421705
2025-09-04 16:47:34,1421864
2025-09-04 16:47:34,1421997
2025-09-04 16:47:34,1422190
2025-09-04 16:47:34,1422193
2025-09-04 16:47:34,1422344
2025-09-04 16:47:34,1422514
2025-09-04 16:47:34,1422637
2025-09-04 16:47:34,1422800
2025-09-04 16:47:34,1422906
2025-09-04 16:47:34,1422978
2025-09-04 16:47:34,1423088
2025-09-04 16:47:34,1423250
2025-09-04 16:47:34,1423304
2025-09-04 16:47:34,1423508
2025-09-04 16:47:34,1423561
2025-09-04 16:47:34,1423720
2025-09-04 16:47:34,1423924
2025-09-04 16:47:34,1424022
2025-09-04 16:47:34,1424119
2025-09-04 16:47:34,1424324
2025-09-04 16:47:34,1424450
2025-09-04 16:47:34,1424602
2025-09-04 16:47:34,1424713
2025-09-04 16:47:34,1424870
2025-09-04 16:47:34,1425025
2025-09-04 16:47:34,1425071
2025-09-04 16:47:34,1424986
2025-09-04 16:47:34,1424717
2025-09-04 16:47:34,1424162
2025-09-04 16:47:34,1423455
2025-09-04 16:47:34,1422734
2025-09-04 16:47:34,1422179
2025-09-04 16:47:34,1421649
2025-09-04 16:47:34,1421185
2025-09-04 16:47:34,1420848
2025-09-04 16:47:34,1420461
2025-09-04 16:47:34,1420266
2025-09-04 16:47:34,1420063
2025-09-04 16:47:34,1419879
2025-09-04 16:47:34,1419937
2025-09-04 16:47:34,1419914
2025-09-04 16:47:34,1419914
2025-09-04 16:47:34,1419927
2025-09-04 16:47:34,1419879
2025-09-04 16:47:34,1419939
2025-09-04 16:47:34,1419976
2025-09-04 16:47:34,1419961
2025-09-04 16:47:34,1419953
2025-09-04 16:47:34,1420092
2025-09-04 16:47:34,1420129
2025-09-04 16:47:34,1420237
2025-09-04 16:47:34,1420390
2025-09-04 16:47:34,1420354
2025-09-04 16:47:34,1420476
2025-09-04 16:47:34,1420562
2025-09-04 16:47:34,1420533
2025-09-04 16:47:34,1420494
2025-09-04 16:47:34,1420592
2025-09-04 16:47:34,1420594
2025-09-04 16:47:34,1420648
2025-09-04 16:47:34,1420649
2025-09-04 16:47:34,1420640
2025-09-04 16:47:34,1420610
2025-09-04 16:47:34,1420632
2025-09-04 16:47:34,1420688
2025-09-04 16:47:34,1420720
2025-09-04 16:47:34,1420859
2025-09-04 16:47:34,1420875
2025-09-04 16:47:34,1420979
2025-09-04 16:47:34,1421131
2025-09-04 16:47:34,1421247
2025-09-04 16:47:34,1421348
2025-09-04 16:47:34,1421469
2025-09-04 16:47:34,1421567
2025-09-04 16:47:34,1421707
2025-09-04 16:47:34,1421781
2025-09-04 16:47:34,1421923
2025-09-04 16:47:34,1422040
2025-09-04 16:47:34,1422239
2025-09-04 16:47:34,1422334
2025-09-04 16:47:34,1422405
2025-09-04 16:47:34,1422527
2025-09-04 16:47:34,1422718
2025-09-04 16:47:34,1422843
2025-09-04 16:47:34,1422963
2025-09-04 16:47:34,1423056
2025-09-04 16:47:34,1423181
2025-09-04 16:47:34,1423306
2025-09-04 16:47:34,1423495
2025-09-04 16:47:34,1423597
2025-09-04 16:47:34,1423636
2025-09-04 16:47:35,1423747
2025-09-04 16:47:35,1423862
2025-09-04 16:47:35,1423988
2025-09-04 16:47:35,1424112
2025-09-04 16:47:35,1424238
2025-09-04 16:47:35,1424481
2025-09-04 16:47:35,1424531
2025-09-04 16:47:35,1424717
2025-09-04 16:47:35,1424870
2025-09-04 16:47:35,1425015
2025-09-04 16:47:35,1425140
2025-09-04 16:47:35,1425306
2025-09-04 16:47:35,1425540
2025-09-04 16:47:35,1425538
2025-09-04 16:47:35,1425333
2025-09-04 16:47:35,1424977
2025-09-04 16:47:35,1424376
2025-09-04 16:47:35,1423665
2025-09-04 16:47:35,1423073
2025-09-04 16:47:35,1422550
2025-09-04 16:47:35,1421953
2025-09-04 16:47:35,1421542
2025-09-04 16:47:35,1421152
2025-09-04 16:47:35,1420847
2025-09-04 16:47:35,1420672
2025-09-04 16:47:35,1420557
2025-09-04 16:47:35,1420446
2025-09-04 16:47:35,1420413
2025-09-04 16:47:35,1420454
2025-09-04 16:47:35,1420520
2025-09-04 16:47:35,1420536
2025-09-04 16:47:35,1420588
2025-09-04 16:47:35,1420598
2025-09-04 16:47:35,1420790
2025-09-04 16:47:35,1420662
2025-09-04 16:47:35,1420830
2025-09-04 16:47:35,1420908
2025-09-04 16:47:35,1421073
2025-09-04 16:47:35,1421297
2025-09-04 16:47:35,1421306
2025-09-04 16:47:35,1421409
2025-09-04 16:47:35,1421470
2025-09-04 16:47:35,1421538
2025-09-04 16:47:35,1421562
2025-09-04 16:47:35,1421605
2025-09-04 16:47:35,1421628
2025-09-04 16:47:35,1421612
2025-09-04 16:47:35,1421651
2025-09-04 16:47:35,1421648
2025-09-04 16:47:35,1421635
2025-09-04 16:47:35,1421711
2025-09-04 16:47:35,1421711
2025-09-04 16:47:35,1421726
2025-09-04 16:47:35,1421846
2025-09-04 16:47:35,1421882
2025-09-04 16:47:35,1422180
2025-09-04 16:47:35,1422216
2025-09-04 16:47:35,1422350
2025-09-04 16:47:35,1422371
2025-09-04 16:47:35,1422538
2025-09-04 16:47:35,1422696
2025-09-04 16:47:35,1422913
2025-09-04 16:47:35,1422910
2025-09-04 16:47:35,1423180
2025-09-04 16:47:35,1423308
2025-09-04 16:47:35,1423403
2025-09-04 16:47:35,1423658
2025-09-04 16:47:35,1423685
2025-09-04 16:47:35,1423839
2025-09-04 16:47:35,1423935
2025-09-04 16:47:35,1424131
2025-09-04 16:47:35,1424289
2025-09-04 16:47:35,1424382
2025-09-04 16:47:35,1424630
2025-09-04 16:47:35,1424588
2025-09-04 16:47:35,1424849
2025-09-04 16:47:35,1424959
2025-09-04 16:47:35,1425088
2025-09-04 16:47:35,1425174
2025-09-04 16:47:35,1425404
2025-09-04 16:47:35,1425539
2025-09-04 16:47:35,1425685
2025-09-04 16:47:35,1425901
2025-09-04 16:47:35,1426044
2025-09-04 16:47:35,1426167
2025-09-04 16:47:35,1426367
2025-09-04 16:47:35,1426529
2025-09-04 16:47:35,1426848
2025-09-04 16:47:35,1427005
2025-09-04 16:47:35,1427147
2025-09-04 16:47:35,1427353
2025-09-04 16:47:35,1427493
2025-09-04 16:47:35,1427579
2025-09-04 16:47:35,1427536
2025-09-04 16:47:35,1427241
2025-09-04 16:47:35,1426748
2025-09-04 16:47:35,1426136
2025-09-04 16:47:35,1425514
2025-09-04 16:47:35,1424897
2025-09-04 16:47:35,1424462
2025-09-04 16:47:36,1423917
2025-09-04 16:47:36,1423507
2025-09-04 16:47:36,1423081
2025-09-04 16:47:36,1422906
2025-09-04 16:47:36,1422675
2025-09-04 16:47:36,1422642
2025-09-04 16:47:36,1422633
2025-09-04 16:47:36,1422495
2025-09-04 16:47:36,1422595
2025-09-04 16:47:36,1422647
2025-09-04 16:47:36,1422687
2025-09-04 16:47:36,1422749
2025-09-04 16:47:36,1422809
2025-09-04 16:47:36,1422936
2025-09-04 16:47:36,1423119
2025-09-04 16:47:36,1423274
2025-09-04 16:47:36,1423338
2025-09-04 16:47:36,1423529
2025-09-04 16:47:36,1423713
2025-09-04 16:47:36,1423766
2025-09-04 16:47:36,1423854
2025-09-04 16:47:36,1423953
2025-09-04 16:47:36,1423903
2025-09-04 16:47:36,1424048
2025-09-04 16:47:36,1423869
2025-09-04 16:47:36,1423853
2025-09-04 16:47:36,1423942
2025-09-04 16:47:36,1423790
2025-09-04 16:47:36,1423783
2025-09-04 16:47:36,1423790
2025-09-04 16:47:36,1423760
2025-09-04 16:47:36,1423825
2025-09-04 16:47:36,1423883
2025-09-04 16:47:36,1423931
2025-09-04 16:47:36,1424073
2025-09-04 16:47:36,1424144
2025-09-04 16:47:36,1424279
2025-09-04 16:47:36,1424342
2025-09-04 16:47:36,1424506
2025-09-04 16:47:36,1424617
2025-09-04 16:47:36,1424762
2025-09-04 16:47:36,1424911
2025-09-04 16:47:36,1424981
2025-09-04 16:47:36,1425139
2025-09-04 16:47:36,1425272
2025-09-04 16:47:36,1425471
2025-09-04 16:47:36,1425547
2025-09-04 16:47:36,1425693
2025-09-04 16:47:36,1425806
2025-09-04 16:47:36,1425942
2025-09-04 16:47:36,1426007
2025-09-04 16:47:36,1426137
2025-09-04 16:47:36,1426170
2025-09-04 16:47:36,1426343
2025-09-04 16:47:36,1426492
2025-09-04 16:47:36,1426602
2025-09-04 16:47:36,1426668
2025-09-04 16:47:36,1426798
2025-09-04 16:47:36,1426900
2025-09-04 16:47:36,1427025
2025-09-04 16:47:36,1427163
2025-09-04 16:47:36,1427260
2025-09-04 16:47:36,1427453
2025-09-04 16:47:36,1427548
2025-09-04 16:47:36,1427724
2025-09-04 16:47:36,1427927
2025-09-04 16:47:36,1427983
2025-09-04 16:47:36,1428224
2025-09-04 16:47:36,1428289
2025-09-04 16:47:36,1428259
2025-09-04 16:47:36,1427968
2025-09-04 16:47:36,1427442
2025-09-04 16:47:36,1426935
2025-09-04 16:47:36,1426253
2025-09-04 16:47:36,1425653
2025-09-04 16:47:36,1425230
2025-09-04 16:47:36,1424663
2025-09-04 16:47:36,1424297
2025-09-04 16:47:36,1423931
2025-09-04 16:47:36,1423614
2025-09-04 16:47:36,1423397
2025-09-04 16:47:36,1423355
2025-09-04 16:47:36,1423323
2025-09-04 16:47:36,1423325
2025-09-04 16:47:36,1423238
2025-09-04 16:47:36,1423439
2025-09-04 16:47:36,1423482
2025-09-04 16:47:36,1423539
2025-09-04 16:47:36,1423556
2025-09-04 16:47:36,1423705
2025-09-04 16:47:36,1423798
2025-09-04 16:47:36,1423981
2025-09-04 16:47:36,1424063
2025-09-04 16:47:36,1424245
2025-09-04 16:47:36,1424310
2025-09-04 16:47:36,1424440
2025-09-04 16:47:36,1424461
2025-09-04 16:47:36,1424566
2025-09-04 16:47:36,1424619
2025-09-04 16:47:36,1424616
2025-09-04 16:47:37,1424521
2025-09-04 16:47:37,1424551
2025-09-04 16:47:37,1424549
2025-09-04 16:47:37,1424449
2025-09-04 16:47:37,1424521
2025-09-04 16:47:37,1424498
2025-09-04 16:47:37,1424527
2025-09-04 16:47:37,1424542
2025-09-04 16:47:37,1424531
2025-09-04 16:47:37,1424577
2025-09-04 16:47:37,1424651
2025-09-04 16:47:37,1424815
2025-09-04 16:47:37,1425043
2025-09-04 16:47:37,1425025
2025-09-04 16:47:37,1425228
2025-09-04 16:47:37,1425386
2025-09-04 16:47:37,1425413
2025-09-04 16:47:37,1425608
2025-09-04 16:47:37,1425790
2025-09-04 16:47:37,1425911
2025-09-04 16:47:37,1426068
2025-09-04 16:47:37,1426206
2025-09-04 16:47:37,1426342
2025-09-04 16:47:37,1426434
2025-09-04 16:47:37,1426579
2025-09-04 16:47:37,1426740
2025-09-04 16:47:37,1426812
2025-09-04 16:47:37,1426891
2025-09-04 16:47:37,1427108
2025-09-04 16:47:37,1427188
2025-09-04 16:47:37,1427308
2025-09-04 16:47:37,1427388
2025-09-04 16:47:37,1427590
2025-09-04 16:47:37,1427690
2025-09-04 16:47:37,1427809
2025-09-04 16:47:37,1427896
2025-09-04 16:47:37,1428095
2025-09-04 16:47:37,1428208
2025-09-04 16:47:37,1428395
2025-09-04 16:47:37,1428488
2025-09-04 16:47:37,1428655
2025-09-04 16:47:37,1428822
2025-09-04 16:47:37,1429050
2025-09-04 16:47:37,1429179
2025-09-04 16:47:37,1429244
2025-09-04 16:47:37,1429377
2025-09-04 16:47:37,1429333
2025-09-04 16:47:37,1429237
2025-09-04 16:47:37,1428829
2025-09-04 16:47:37,1428211
2025-09-04 16:47:37,1427459
2025-09-04 16:47:37,1426776
2025-09-04 16:47:37,1426160
2025-09-04 16:47:37,1425523
2025-09-04 16:47:37,1425078
2025-09-04 16:47:37,1424584
2025-09-04 16:47:37,1424325
2025-09-04 16:47:37,1423986
2025-09-04 16:47:37,1423776
2025-09-04 16:47:37,1423640
2025-09-04 16:47:37,1423507
2025-09-04 16:47:37,1423500
2025-09-04 16:47:37,1423572
2025-09-04 16:47:37,1423563
2025-09-04 16:47:37,1423623
2025-09-04 16:47:37,1423636
2025-09-04 16:47:37,1423695
2025-09-04 16:47:37,1423853
2025-09-04 16:47:37,1423801
2025-09-04 16:47:37,1423860
2025-09-04 16:47:37,1423893
2025-09-04 16:47:37,1423961
2025-09-04 16:47:37,1424044
2025-09-04 16:47:37,1424218
2025-09-04 16:47:37,1424289
2025-09-04 16:47:37,1424360
2025-09-04 16:47:37,1424429
2025-09-04 16:47:37,1424508
2025-09-04 16:47:37,1424597
2025-09-04 16:47:37,1424523
2025-09-04 16:47:37,1424558
2025-09-04 16:47:37,1424479
2025-09-04 16:47:37,1424527
2025-09-04 16:47:37,1424491
2025-09-04 16:47:37,1424561
2025-09-04 16:47:37,1424668
2025-09-04 16:47:37,1424566
2025-09-04 16:47:37,1424646
2025-09-04 16:47:37,1424806
2025-09-04 16:47:37,1424933
2025-09-04 16:47:37,1425070
2025-09-04 16:47:37,1425185
2025-09-04 16:47:37,1425322
2025-09-04 16:47:37,1425390
2025-09-04 16:47:37,1425540
2025-09-04 16:47:37,1425639
2025-09-04 16:47:37,1425752
2025-09-04 16:47:37,1425900
2025-09-04 16:47:37,1426078
2025-09-04 16:47:37,1426123
2025-09-04 16:47:38,1426276
2025-09-04 16:47:38,1426349
2025-09-04 16:47:38,1426479
2025-09-04 16:47:38,1426567
2025-09-04 16:47:38,1426674
2025-09-04 16:47:38,1426810
2025-09-04 16:47:38,1427018
2025-09-04 16:47:38,1427094
2025-09-04 16:47:38,1427111
2025-09-04 16:47:38,1427300
2025-09-04 16:47:38,1427395
2025-09-04 16:47:38,1427420
2025-09-04 16:47:38,1427596
2025-09-04 16:47:38,1427685
2025-09-04 16:47:38,1427851
2025-09-04 16:47:38,1427875
2025-09-04 16:47:38,1428075
2025-09-04 16:47:38,1428240
2025-09-04 16:47:38,1428473
2025-09-04 16:47:38,1428588
2025-09-04 16:47:38,1428689
2025-09-04 16:47:38,1428819
2025-09-04 16:47:38,1429071
2025-09-04 16:47:38,1429102
2025-09-04 16:47:38,1429193
2025-09-04 16:47:38,1429245
2025-09-04 16:47:38,1429010
2025-09-04 16:47:38,1428505
2025-09-04 16:47:38,1427910
2025-09-04 16:47:38,1427154
2025-09-04 16:47:38,1426584
2025-09-04 16:47:38,1425970
2025-09-04 16:47:38,1425277
2025-09-04 16:47:38,1424929
2025-09-04 16:47:38,1424463
2025-09-04 16:47:38,1424164
2025-09-04 16:47:38,1423868
2025-09-04 16:47:38,1423669
2025-09-04 16:47:38,1423630
2025-09-04 16:47:38,1423533
2025-09-04 16:47:38,1423480
2025-09-04 16:47:38,1423508
2025-09-04 16:47:38,1423488
2025-09-04 16:47:38,1423604
2025-09-04 16:47:38,1423642
2025-09-04 16:47:38,1423656
2025-09-04 16:47:38,1423769
2025-09-04 16:47:38,1423799
2025-09-04 16:47:38,1423860
2025-09-04 16:47:38,1424036
2025-09-04 16:47:38,1424188
2025-09-04 16:47:38,1424300
2025-09-04 16:47:38,1424370
2025-09-04 16:47:38,1424337
2025-09-04 16:47:38,1424416
2025-09-04 16:47:38,1424393
2025-09-04 16:47:38,1424460
2025-09-04 16:47:38,1424393
2025-09-04 16:47:38,1424360
2025-09-04 16:47:38,1424400
2025-09-04 16:47:38,1424273
2025-09-04 16:47:38,1424029
2025-09-04 16:47:38,1423757
2025-09-04 16:47:38,1423517
2025-09-04 16:47:38,1423421
2025-09-04 16:47:38,1423371
2025-09-04 16:47:38,1423473
2025-09-04 16:47:38,1423583
2025-09-04 16:47:38,1423818
2025-09-04 16:47:38,1424006
2025-09-04 16:47:38,1424187
2025-09-04 16:47:38,1424359
2025-09-04 16:47:38,1424496
2025-09-04 16:47:38,1424732
2025-09-04 16:47:38,1424936
2025-09-04 16:47:38,1425200
2025-09-04 16:47:38,1425420
2025-09-04 16:47:38,1425620
2025-09-04 16:47:38,1425876
2025-09-04 16:47:38,1426033
2025-09-04 16:47:38,1426291
2025-09-04 16:47:38,1426494
2025-09-04 16:47:38,1426707
2025-09-04 16:47:38,1426884
2025-09-04 16:47:38,1427078
2025-09-04 16:47:38,1427159
2025-09-04 16:47:38,1427373
2025-09-04 16:47:38,1427493
2025-09-04 16:47:38,1427681
2025-09-04 16:47:38,1427761
2025-09-04 16:47:38,1427965
2025-09-04 16:47:38,1428100
2025-09-04 16:47:38,1428268
2025-09-04 16:47:38,1428384
2025-09-04 16:47:38,1428543
2025-09-04 16:47:38,1428588
2025-09-04 16:47:38,1428817
2025-09-04 16:47:38,1429016
2025-09-04 16:47:38,1429159
2025-09-04 16:47:38,1429300
2025-09-04 16:47:39,1429508
2025-09-04 16:47:39,1429608
2025-09-04 16:47:39,1429829
2025-09-04 16:47:39,1429982
2025-09-04 16:47:39,1429857
2025-09-04 16:47:39,1429576
2025-09-04 16:47:39,1429169
2025-09-04 16:47:39,1428382
2025-09-04 16:47:39,1427785
2025-09-04 16:47:39,1427198
2025-09-04 16:47:39,1426577
2025-09-04 16:47:39,1426008
2025-09-04 16:47:39,1425581
2025-09-04 16:47:39,1425276
2025-09-04 16:47:39,1424943
2025-09-04 16:47:39,1424769
2025-09-04 16:47:39,1424454
2025-09-04 16:47:39,1424457
2025-09-04 16:47:39,1424388
2025-09-04 16:47:39,1424505
2025-09-04 16:47:39,1424510
2025-09-04 16:47:39,1424560
2025-09-04 16:47:39,1424660
2025-09-04 16:47:39,1424760
2025-09-04 16:47:39,1424919
2025-09-04 16:47:39,1424984
2025-09-04 16:47:39,1425162
2025-09-04 16:47:39,1425204
2025-09-04 16:47:39,1425361
2025-09-04 16:47:39,1425611
2025-09-04 16:47:39,1425575
2025-09-04 16:47:39,1425696
2025-09-04 16:47:39,1425745
2025-09-04 16:47:39,1425750
2025-09-04 16:47:39,1425812
2025-09-04 16:47:39,1425719
2025-09-04 16:47:39,1425678
2025-09-04 16:47:39,1425654
2025-09-04 16:47:39,1425683
2025-09-04 16:47:39,1425565
2025-09-04 16:47:39,1425714
2025-09-04 16:47:39,1425630
2025-09-04 16:47:39,1425704
2025-09-04 16:47:39,1425688
2025-09-04 16:47:39,1425817
2025-09-04 16:47:39,1425807
2025-09-04 16:47:39,1426009
2025-09-04 16:47:39,1426107
2025-09-04 16:47:39,1426290
2025-09-04 16:47:39,1426271
2025-09-04 16:47:39,1426425
2025-09-04 16:47:39,1426636
2025-09-04 16:47:39,1426669
2025-09-04 16:47:39,1426807
2025-09-04 16:47:39,1426956
2025-09-04 16:47:39,1427137
2025-09-04 16:47:39,1427138
2025-09-04 16:47:39,1427295
2025-09-04 16:47:39,1427457
2025-09-04 16:47:39,1427594
2025-09-04 16:47:39,1427731
2025-09-04 16:47:39,1427800
2025-09-04 16:47:39,1427908
2025-09-04 16:47:39,1428055
2025-09-04 16:47:39,1428234
2025-09-04 16:47:39,1428209
2025-09-04 16:47:39,1428295
2025-09-04 16:47:39,1428449
2025-09-04 16:47:39,1428622
2025-09-04 16:47:39,1428691
2025-09-04 16:47:39,1428787
2025-09-04 16:47:39,1428921
2025-09-04 16:47:39,1429069
2025-09-04 16:47:39,1429106
2025-09-04 16:47:39,1429343
2025-09-04 16:47:39,1429495
2025-09-04 16:47:39,1429617
2025-09-04 16:47:39,1429721
2025-09-04 16:47:39,1429636
2025-09-04 16:47:39,1429376
2025-09-04 16:47:39,1428941
2025-09-04 16:47:39,1428175
2025-09-04 16:47:39,1427341
2025-09-04 16:47:39,1426623
2025-09-04 16:47:39,1425923
2025-09-04 16:47:39,1425349
2025-09-04 16:47:39,1424802
2025-09-04 16:47:39,1424395
2025-09-04 16:47:39,1424105
2025-09-04 16:47:39,1423766
2025-09-04 16:47:39,1423644
2025-09-04 16:47:39,1423537
2025-09-04 16:47:39,1423625
2025-09-04 16:47:39,1423571
2025-09-04 16:47:39,1423769
2025-09-04 16:47:39,1423836
2025-09-04 16:47:39,1424120
2025-09-04 16:47:39,1424218
2025-09-04 16:47:39,1424473
2025-09-04 16:47:39,1424603
2025-09-04 16:47:40,1424775
2025-09-04 16:47:40,1425016
2025-09-04 16:47:40,1425248
2025-09-04 16:47:40,1425464
2025-09-04 16:47:40,1425645
2025-09-04 16:47:40,1425803
2025-09-04 16:47:40,1425808
2025-09-04 16:47:40,1425840
2025-09-04 16:47:40,1425819
2025-09-04 16:47:40,1425887
2025-09-04 16:47:40,1425861
2025-09-04 16:47:40,1425866
2025-09-04 16:47:40,1425759
2025-09-04 16:47:40,1425686
2025-09-04 16:47:40,1425671
2025-09-04 16:47:40,1425609
2025-09-04 16:47:40,1425635
2025-09-04 16:47:40,1425703
2025-09-04 16:47:40,1425720
2025-09-04 16:47:40,1425873
2025-09-04 16:47:40,1425928
2025-09-04 16:47:40,1426106
2025-09-04 16:47:40,1426113
2025-09-04 16:47:40,1426266
2025-09-04 16:47:40,1426386
2025-09-04 16:47:40,1426556
2025-09-04 16:47:40,1426623
2025-09-04 16:47:40,1426822
2025-09-04 16:47:40,1426894
2025-09-04 16:47:40,1427069
2025-09-04 16:47:40,1427192
2025-09-04 16:47:40,1427371
2025-09-04 16:47:40,1427518
2025-09-04 16:47:40,1427561
2025-09-04 16:47:40,1427698
2025-09-04 16:47:40,1427825
2025-09-04 16:47:40,1427938
2025-09-04 16:47:40,1428138
2025-09-04 16:47:40,1428169
2025-09-04 16:47:40,1428315
2025-09-04 16:47:40,1428394
2025-09-04 16:47:40,1428492
2025-09-04 16:47:40,1428607
2025-09-04 16:47:40,1428753
2025-09-04 16:47:40,1428851
2025-09-04 16:47:40,1428877
2025-09-04 16:47:40,1429022
2025-09-04 16:47:40,1429093
2025-09-04 16:47:40,1429281
2025-09-04 16:47:40,1429298
2025-09-04 16:47:40,1429469
2025-09-04 16:47:40,1429583
2025-09-04 16:47:40,1429790
2025-09-04 16:47:40,1429928
2025-09-04 16:47:40,1429917
2025-09-04 16:47:40,1429876
2025-09-04 16:47:40,1429793
2025-09-04 16:47:40,1429304
2025-09-04 16:47:40,1428696
2025-09-04 16:47:40,1428045
2025-09-04 16:47:40,1427221
2025-09-04 16:47:40,1426018
2025-09-04 16:47:40,1425490
2025-09-04 16:47:40,1424988
2025-09-04 16:47:40,1424684
2025-09-04 16:47:40,1424277
2025-09-04 16:47:40,1424118
2025-09-04 16:47:40,1423947
2025-09-04 16:47:40,1423899
2025-09-04 16:47:40,1423912
2025-09-04 16:47:40,1423830
2025-09-04 16:47:40,1423921
2025-09-04 16:47:40,1423894
2025-09-04 16:47:40,1424002
2025-09-04 16:47:40,1423923
2025-09-04 16:47:40,1424084
2025-09-04 16:47:40,1424102
2025-09-04 16:47:40,1424110
2025-09-04 16:47:40,1424198
2025-09-04 16:47:40,1424425
2025-09-04 16:47:40,1424433
2025-09-04 16:47:40,1424511
2025-09-04 16:47:40,1424544
2025-09-04 16:47:40,1424471
2025-09-04 16:47:40,1424421
2025-09-04 16:47:40,1424411
2025-09-04 16:47:40,1424384
2025-09-04 16:47:40,1424242
2025-09-04 16:47:40,1424258
2025-09-04 16:47:40,1424171
2025-09-04 16:47:40,1424102
2025-09-04 16:47:40,1424111
2025-09-04 16:47:40,1424075
2025-09-04 16:47:40,1424128
2025-09-04 16:47:40,1424211
2025-09-04 16:47:40,1424195
2025-09-04 16:47:40,1424293
2025-09-04 16:47:40,1424457
2025-09-04 16:47:40,1424537
2025-09-04 16:47:41,1424671
2025-09-04 16:47:41,1424824
2025-09-04 16:47:41,1424873
2025-09-04 16:47:41,1425060
2025-09-04 16:47:41,1425068
2025-09-04 16:47:41,1425202
2025-09-04 16:47:41,1425305
2025-09-04 16:47:41,1425434
2025-09-04 16:47:41,1425578
2025-09-04 16:47:41,1425691
2025-09-04 16:47:41,1425759
2025-09-04 16:47:41,1425850
2025-09-04 16:47:41,1425998
2025-09-04 16:47:41,1426196
2025-09-04 16:47:41,1426231
2025-09-04 16:47:41,1426370
2025-09-04 16:47:41,1426480
2025-09-04 16:47:41,1426528
2025-09-04 16:47:41,1426685
2025-09-04 16:47:41,1426897
2025-09-04 16:47:41,1426900
2025-09-04 16:47:41,1427077
2025-09-04 16:47:41,1427196
2025-09-04 16:47:41,1427355
2025-09-04 16:47:41,1427504
2025-09-04 16:47:41,1427574
2025-09-04 16:47:41,1427706
2025-09-04 16:47:41,1427873
2025-09-04 16:47:41,1428085
2025-09-04 16:47:41,1428156
2025-09-04 16:47:41,1428382
2025-09-04 16:47:41,1428521
2025-09-04 16:47:41,1428572
2025-09-04 16:47:41,1428666
2025-09-04 16:47:41,1428490
2025-09-04 16:47:41,1427986
2025-09-04 16:47:41,1427309
2025-09-04 16:47:41,1426562
2025-09-04 16:47:41,1425954
2025-09-04 16:47:41,1425204
2025-09-04 16:47:41,1424748
2025-09-04 16:47:41,1424281
2025-09-04 16:47:41,1423823
2025-09-04 16:47:41,1423500
2025-09-04 16:47:41,1423299
2025-09-04 16:47:41,1423112
2025-09-04 16:47:41,1423022
2025-09-04 16:47:41,1422929
2025-09-04 16:47:41,1422897
2025-09-04 16:47:41,1422977
2025-09-04 16:47:41,1422929
2025-09-04 16:47:41,1423014
2025-09-04 16:47:41,1423095
2025-09-04 16:47:41,1423145
2025-09-04 16:47:41,1423222
2025-09-04 16:47:41,1423223
2025-09-04 16:47:41,1423423
2025-09-04 16:47:41,1423473
2025-09-04 16:47:41,1423658
2025-09-04 16:47:41,1423694
2025-09-04 16:47:41,1423718
2025-09-04 16:47:41,1423811
2025-09-04 16:47:41,1423728
2025-09-04 16:47:41,1423771
2025-09-04 16:47:41,1423890
2025-09-04 16:47:41,1423802
2025-09-04 16:47:41,1423822
2025-09-04 16:47:41,1423767
2025-09-04 16:47:41,1423728
2025-09-04 16:47:41,1423686
2025-09-04 16:47:41,1423764
2025-09-04 16:47:41,1423679
2025-09-04 16:47:41,1423706
2025-09-04 16:47:41,1423889
2025-09-04 16:47:41,1423979
2025-09-04 16:47:41,1423989
2025-09-04 16:47:41,1424183
2025-09-04 16:47:41,1424236
2025-09-04 16:47:41,1424413
2025-09-04 16:47:41,1424575
2025-09-04 16:47:41,1424698
2025-09-04 16:47:41,1424840
2025-09-04 16:47:41,1424976
2025-09-04 16:47:41,1425119
2025-09-04 16:47:41,1425167
2025-09-04 16:47:41,1425331
2025-09-04 16:47:41,1425434
2025-09-04 16:47:41,1425562
2025-09-04 16:47:41,1425676
2025-09-04 16:47:41,1425750
2025-09-04 16:47:41,1425980
2025-09-04 16:47:41,1426051
2025-09-04 16:47:41,1426119
2025-09-04 16:47:41,1426313
2025-09-04 16:47:41,1426277
2025-09-04 16:47:41,1426508
2025-09-04 16:47:41,1426607
2025-09-04 16:47:41,1426757
2025-09-04 16:47:41,1426852
2025-09-04 16:47:41,1427002
2025-09-04 16:47:42,1427015
2025-09-04 16:47:42,1427219
2025-09-04 16:47:42,1427337
2025-09-04 16:47:42,1427458
2025-09-04 16:47:42,1427510
2025-09-04 16:47:42,1427738
2025-09-04 16:47:42,1427907
2025-09-04 16:47:42,1428086
2025-09-04 16:47:42,1428300
2025-09-04 16:47:42,1428328
2025-09-04 16:47:42,1428436
2025-09-04 16:47:42,1428395
2025-09-04 16:47:42,1428117
2025-09-04 16:47:42,1427519
2025-09-04 16:47:42,1426931
2025-09-04 16:47:42,1426229
2025-09-04 16:47:42,1425529
2025-09-04 16:47:31,1424943
2025-09-04 16:47:38,1424368
2025-09-04 16:47:42,1423942
2025-09-04 16:47:42,1423614
2025-09-04 16:47:42,1423219
2025-09-04 16:47:42,1423077
2025-09-04 16:47:42,1422844
2025-09-04 16:47:42,1422839
2025-09-04 16:47:42,1422802
2025-09-04 16:47:42,1422795
2025-09-04 16:47:42,1422776
2025-09-04 16:47:42,1422927
2025-09-04 16:47:42,1422962
2025-09-04 16:47:42,1422967
2025-09-04 16:47:42,1423083
2025-09-04 16:47:42,1423246
2025-09-04 16:47:42,1423263
2025-09-04 16:47:42,1423496
2025-09-04 16:47:42,1423552
2025-09-04 16:47:42,1423713
2025-09-04 16:47:42,1423730
2025-09-04 16:47:42,1423726
2025-09-04 16:47:42,1423814
2025-09-04 16:47:42,1423865
2025-09-04 16:47:42,1423778
2025-09-04 16:47:42,1423604
2025-09-04 16:47:42,1423618
2025-09-04 16:47:42,1423534
2025-09-04 16:47:42,1423506
2025-09-04 16:47:42,1423462
2025-09-04 16:47:42,1423340
2025-09-04 16:47:42,1423411
2025-09-04 16:47:42,1423432
2025-09-04 16:47:42,1423399
2025-09-04 16:47:42,1423466
2025-09-04 16:47:42,1423667
2025-09-04 16:47:42,1423651
2025-09-04 16:47:42,1423790
2025-09-04 16:47:42,1423959
2025-09-04 16:47:42,1424036
2025-09-04 16:47:42,1424093
2025-09-04 16:47:42,1424312
2025-09-04 16:47:42,1424331
2025-09-04 16:47:42,1424495
2025-09-04 16:47:42,1424573
2025-09-04 16:47:42,1424709
2025-09-04 16:47:42,1424761
2025-09-04 16:47:42,1424984
2025-09-04 16:47:42,1425066
2025-09-04 16:47:42,1425088
2025-09-04 16:47:42,1425132
2025-09-04 16:47:42,1425304
2025-09-04 16:47:42,1425346
2025-09-04 16:47:42,1425560
2025-09-04 16:47:42,1425572
2025-09-04 16:47:42,1425621
2025-09-04 16:47:42,1425747
2025-09-04 16:47:42,1425845
2025-09-04 16:47:42,1425967
2025-09-04 16:47:42,1425991
2025-09-04 16:47:42,1426125
2025-09-04 16:47:42,1426235
2025-09-04 16:47:42,1426311
2025-09-04 16:47:42,1426489
2025-09-04 16:47:42,1426773
2025-09-04 16:47:42,1426806
2025-09-04 16:47:42,1426929
2025-09-04 16:47:42,1427057
2025-09-04 16:47:42,1427158
2025-09-04 16:47:42,1427242
2025-09-04 16:47:42,1427330
2025-09-04 16:47:42,1427104
2025-09-04 16:47:42,1426580
2025-09-04 16:47:42,1425897
2025-09-04 16:47:42,1425209
2025-09-04 16:47:42,1424470
2025-09-04 16:47:42,1423840
2025-09-04 16:47:42,1423210
2025-09-04 16:47:42,1422692
2025-09-04 16:47:42,1422364
2025-09-04 16:47:42,1422063
2025-09-04 16:47:42,1421674
2025-09-04 16:47:42,1421516
2025-09-04 16:47:43,1421377
2025-09-04 16:47:43,1421325
2025-09-04 16:47:43,1421332
2025-09-04 16:47:43,1421274
2025-09-04 16:47:43,1421287
2025-09-04 16:47:43,1421227
2025-09-04 16:47:43,1421327
2025-09-04 16:47:43,1421361
2025-09-04 16:47:43,1421351
2025-09-04 16:47:43,1421437
2025-09-04 16:47:43,1421448
2025-09-04 16:47:43,1421502
2025-09-04 16:47:43,1421639
2025-09-04 16:47:43,1421613
2025-09-04 16:47:43,1421865
2025-09-04 16:47:43,1421759
2025-09-04 16:47:43,1421764
2025-09-04 16:47:43,1421808
2025-09-04 16:47:43,1421732
2025-09-04 16:47:43,1421732
2025-09-04 16:47:43,1421765
2025-09-04 16:47:43,1421655
2025-09-04 16:47:43,1421591
2025-09-04 16:47:43,1421644
2025-09-04 16:47:43,1421652
2025-09-04 16:47:43,1421586
2025-09-04 16:47:43,1421618
2025-09-04 16:47:43,1421664
2025-09-04 16:47:43,1421872
2025-09-04 16:47:43,1421889
2025-09-04 16:47:43,1422068
2025-09-04 16:47:43,1422169
2025-09-04 16:47:43,1422247
2025-09-04 16:47:43,1422343
2025-09-04 16:47:43,1422462
2025-09-04 16:47:43,1422630
2025-09-04 16:47:43,1422754
2025-09-04 16:47:43,1422868
2025-09-04 16:47:43,1422985
2025-09-04 16:47:43,1423143
2025-09-04 16:47:43,1423193
2025-09-04 16:47:43,1423400
2025-09-04 16:47:43,1423450
2025-09-04 16:47:43,1423604
2025-09-04 16:47:43,1423665
2025-09-04 16:47:43,1423756
2025-09-04 16:47:43,1423975
2025-09-04 16:47:43,1423970
2025-09-04 16:47:43,1424084
2025-09-04 16:47:43,1424233
2025-09-04 16:47:43,1424325
2025-09-04 16:47:43,1424330
2025-09-04 16:47:43,1424507
2025-09-04 16:47:43,1424659
2025-09-04 16:47:43,1424827
2025-09-04 16:47:43,1424930
2025-09-04 16:47:43,1425035
2025-09-04 16:47:43,1425240
2025-09-04 16:47:43,1425257
2025-09-04 16:47:43,1425393
2025-09-04 16:47:43,1425559
2025-09-04 16:47:43,1425718
2025-09-04 16:47:43,1425935
2025-09-04 16:47:43,1425937
2025-09-04 16:47:43,1426249
2025-09-04 16:47:43,1426344
2025-09-04 16:47:43,1426511
2025-09-04 16:47:43,1426567
2025-09-04 16:47:43,1426577
2025-09-04 16:47:43,1426316
2025-09-04 16:47:43,1425712
2025-09-04 16:47:43,1425146
2025-09-04 16:47:43,1424268
2025-09-04 16:47:43,1423451
2025-09-04 16:47:43,1422760
2025-09-04 16:47:43,1422256
2025-09-04 16:47:43,1421682
2025-09-04 16:47:43,1421221
2025-09-04 16:47:43,1420765
2025-09-04 16:47:43,1420524
2025-09-04 16:47:43,1420298
2025-09-04 16:47:43,1420245
2025-09-04 16:47:43,1420093
2025-09-04 16:47:43,1420020
2025-09-04 16:47:43,1420091
2025-09-04 16:47:43,1419891
2025-09-04 16:47:43,1420031
2025-09-04 16:47:43,1419985
2025-09-04 16:47:43,1420028
2025-09-04 16:47:43,1419999
2025-09-04 16:47:43,1420006
2025-09-04 16:47:43,1419990
2025-09-04 16:47:43,1420091
2025-09-04 16:47:43,1420175
2025-09-04 16:47:43,1420205
2025-09-04 16:47:43,1420261
2025-09-04 16:47:43,1420327
2025-09-04 16:47:43,1420303
2025-09-04 16:47:43,1420322
2025-09-04 16:47:43,1420342
2025-09-04 16:47:43,1420282
2025-09-04 16:47:44,1420266
2025-09-04 16:47:44,1420256
2025-09-04 16:47:44,1420118
2025-09-04 16:47:44,1420224
2025-09-04 16:47:44,1420067
2025-09-04 16:47:44,1420295
2025-09-04 16:47:44,1420199
2025-09-04 16:47:44,1420268
2025-09-04 16:47:44,1420293
2025-09-04 16:47:44,1420323
2025-09-04 16:47:44,1420488
2025-09-04 16:47:44,1420579
2025-09-04 16:47:44,1420786
2025-09-04 16:47:44,1420909
2025-09-04 16:47:44,1420940
2025-09-04 16:47:44,1421176
2025-09-04 16:47:44,1421298
2025-09-04 16:47:44,1421380
2025-09-04 16:47:44,1421588
2025-09-04 16:47:44,1421703
2025-09-04 16:47:44,1421890
2025-09-04 16:47:44,1422006
2025-09-04 16:47:44,1422141
2025-09-04 16:47:44,1422271
2025-09-04 16:47:44,1422419
2025-09-04 16:47:44,1422577
2025-09-04 16:47:44,1422643
2025-09-04 16:47:44,1422825
2025-09-04 16:47:44,1422945
2025-09-04 16:47:44,1423066
2025-09-04 16:47:44,1423096
2025-09-04 16:47:44,1423282
2025-09-04 16:47:44,1423405
2025-09-04 16:47:44,1423536
2025-09-04 16:47:44,1423765
2025-09-04 16:47:44,1423882
2025-09-04 16:47:44,1424076
2025-09-04 16:47:44,1424111
2025-09-04 16:47:44,1424335
2025-09-04 16:47:44,1424409
2025-09-04 16:47:44,1424576
2025-09-04 16:47:44,1424813
2025-09-04 16:47:44,1424933
2025-09-04 16:47:44,1425124
2025-09-04 16:47:44,1425362
2025-09-04 16:47:44,1425455
2025-09-04 16:47:44,1425595
2025-09-04 16:47:44,1425822
2025-09-04 16:47:44,1426001
2025-09-04 16:47:44,1426170
2025-09-04 16:47:44,1426440
2025-09-04 16:47:44,1426446
2025-09-04 16:47:44,1426459
2025-09-04 16:47:44,1426171
2025-09-04 16:47:44,1425691
2025-09-04 16:47:44,1425084
2025-09-04 16:47:44,1424237
2025-09-04 16:47:44,1423515
2025-09-04 16:47:44,1422872
2025-09-04 16:47:44,1422282
2025-09-04 16:47:44,1421795
2025-09-04 16:47:44,1421273
2025-09-04 16:47:44,1421117
2025-09-04 16:47:44,1420833
2025-09-04 16:47:44,1420698
2025-09-04 16:47:44,1420528
2025-09-04 16:47:44,1420539
2025-09-04 16:47:44,1420466
2025-09-04 16:47:44,1420474
2025-09-04 16:47:44,1420633
2025-09-04 16:47:44,1420659
2025-09-04 16:47:44,1420756
2025-09-04 16:47:44,1420909
2025-09-04 16:47:44,1420874
2025-09-04 16:47:44,1420986
2025-09-04 16:47:44,1421245
2025-09-04 16:47:44,1421284
2025-09-04 16:47:44,1421437
2025-09-04 16:47:44,1421511
2025-09-04 16:47:44,1421606
2025-09-04 16:47:44,1421708
2025-09-04 16:47:44,1421718
2025-09-04 16:47:44,1421742
2025-09-04 16:47:44,1421707
2025-09-04 16:47:44,1421793
2025-09-04 16:47:44,1421751
2025-09-04 16:47:44,1421666
2025-09-04 16:47:44,1421742
2025-09-04 16:47:44,1421716
2025-09-04 16:47:44,1421660
2025-09-04 16:47:44,1421772
2025-09-04 16:47:44,1421825
2025-09-04 16:47:44,1421868
2025-09-04 16:47:44,1421999
2025-09-04 16:47:44,1422105
2025-09-04 16:47:44,1422218
2025-09-04 16:47:44,1422390
2025-09-04 16:47:44,1422508
2025-09-04 16:47:44,1422593
2025-09-04 16:47:45,1422789
2025-09-04 16:47:45,1422833
2025-09-04 16:47:45,1423018
2025-09-04 16:47:45,1423227
2025-09-04 16:47:45,1423357
2025-09-04 16:47:45,1423466
2025-09-04 16:47:45,1423734
2025-09-04 16:47:45,1423814
2025-09-04 16:47:45,1423925
2025-09-04 16:47:45,1424037
2025-09-04 16:47:45,1424245
2025-09-04 16:47:45,1424307
2025-09-04 16:47:45,1424541
2025-09-04 16:47:45,1424523
2025-09-04 16:47:45,1424662
2025-09-04 16:47:45,1424856
2025-09-04 16:47:45,1424930
2025-09-04 16:47:45,1425152
2025-09-04 16:47:45,1425226
2025-09-04 16:47:45,1425340
2025-09-04 16:47:45,1425521
2025-09-04 16:47:45,1425591
2025-09-04 16:47:45,1425703
2025-09-04 16:47:45,1425873
2025-09-04 16:47:45,1425912
2025-09-04 16:47:45,1426092
2025-09-04 16:47:45,1426308
2025-09-04 16:47:45,1426348
2025-09-04 16:47:45,1426535
2025-09-04 16:47:45,1426677
2025-09-04 16:47:45,1426912
2025-09-04 16:47:45,1427081
2025-09-04 16:47:45,1427177
2025-09-04 16:47:45,1427354
2025-09-04 16:47:45,1427459
2025-09-04 16:47:45,1427540
2025-09-04 16:47:45,1427490
2025-09-04 16:47:45,1427021
2025-09-04 16:47:45,1426356
2025-09-04 16:47:45,1425723
2025-09-04 16:47:45,1424966
2025-09-04 16:47:45,1424435
2025-09-04 16:47:45,1423869
2025-09-04 16:47:45,1423275
2025-09-04 16:47:45,1422887
2025-09-04 16:47:45,1422547
2025-09-04 16:47:45,1422234
2025-09-04 16:47:45,1422018
2025-09-04 16:47:45,1421913
2025-09-04 16:47:45,1421970
2025-09-04 16:47:45,1421975
2025-09-04 16:47:45,1422031
2025-09-04 16:47:45,1422054
2025-09-04 16:47:45,1422072
2025-09-04 16:47:45,1422190
2025-09-04 16:47:45,1422304
2025-09-04 16:47:45,1422419
2025-09-04 16:47:45,1422501
2025-09-04 16:47:45,1422747
2025-09-04 16:47:45,1422916
2025-09-04 16:47:45,1422993
2025-09-04 16:47:45,1423093
2025-09-04 16:47:45,1423204
2025-09-04 16:47:45,1423264
2025-09-04 16:47:45,1423274
2025-09-04 16:47:45,1423261
2025-09-04 16:47:45,1423291
2025-09-04 16:47:45,1423272
2025-09-04 16:47:45,1423306
2025-09-04 16:47:45,1423152
2025-09-04 16:47:45,1423132
2025-09-04 16:47:45,1423170
2025-09-04 16:47:45,1423202
2025-09-04 16:47:45,1423293
2025-09-04 16:47:45,1423353
2025-09-04 16:47:45,1423359
2025-09-04 16:47:45,1423458
2025-09-04 16:47:45,1423598
2025-09-04 16:47:45,1423749
2025-09-04 16:47:45,1423818
2025-09-04 16:47:45,1423977
2025-09-04 16:47:45,1424092
2025-09-04 16:47:45,1424243
2025-09-04 16:47:45,1424452
2025-09-04 16:47:45,1424543
2025-09-04 16:47:45,1424657
2025-09-04 16:47:45,1424817
2025-09-04 16:47:45,1424901
2025-09-04 16:47:45,1425189
2025-09-04 16:47:45,1425150
2025-09-04 16:47:45,1425380
2025-09-04 16:47:45,1425562
2025-09-04 16:47:45,1425648
2025-09-04 16:47:45,1425793
2025-09-04 16:47:45,1425955
2025-09-04 16:47:45,1426095
2025-09-04 16:47:45,1426195
2025-09-04 16:47:45,1426456
2025-09-04 16:47:45,1426424
2025-09-04 16:47:45,1426663
2025-09-04 16:47:45,1426762
2025-09-04 16:47:46,1426813
2025-09-04 16:47:46,1427067
2025-09-04 16:47:46,1427187
2025-09-04 16:47:46,1427334
2025-09-04 16:47:46,1427437
2025-09-04 16:47:46,1427530
2025-09-04 16:47:46,1427769
2025-09-04 16:47:46,1427932
2025-09-04 16:47:46,1428079
2025-09-04 16:47:46,1428215
2025-09-04 16:47:46,1428315
2025-09-04 16:47:46,1428525
2025-09-04 16:47:46,1428624
2025-09-04 16:47:46,1428803
2025-09-04 16:47:46,1428956
2025-09-04 16:47:46,1429135
2025-09-04 16:47:46,1429290
2025-09-04 16:47:46,1429386
2025-09-04 16:47:46,1429517
2025-09-04 16:47:46,1429332
2025-09-04 16:47:46,1428923
2025-09-04 16:47:46,1428301
2025-09-04 16:47:46,1427643
2025-09-04 16:47:46,1426775
2025-09-04 16:47:46,1426055
2025-09-04 16:47:46,1425487
2025-09-04 16:47:46,1424905
2025-09-04 16:47:46,1424428
2025-09-04 16:47:46,1423914
2025-09-04 16:47:46,1423794
2025-09-04 16:47:46,1423501
2025-09-04 16:47:46,1423282
2025-09-04 16:47:46,1423197
2025-09-04 16:47:46,1423206
2025-09-04 16:47:46,1423150
2025-09-04 16:47:46,1423128
2025-09-04 16:47:46,1423234
2025-09-04 16:47:46,1423293
2025-09-04 16:47:46,1423302
2025-09-04 16:47:46,1423423
2025-09-04 16:47:46,1423451
2025-09-04 16:47:46,1423575
2025-09-04 16:47:46,1423655
2025-09-04 16:47:46,1423746
2025-09-04 16:47:46,1423934
2025-09-04 16:47:46,1423887
2025-09-04 16:47:46,1424120
2025-09-04 16:47:46,1424113
2025-09-04 16:47:46,1424074
2025-09-04 16:47:46,1424066
2025-09-04 16:47:46,1424027
2025-09-04 16:47:46,1424142
2025-09-04 16:47:46,1424067
2025-09-04 16:47:46,1424066
2025-09-04 16:47:46,1423979
2025-09-04 16:47:46,1424069
2025-09-04 16:47:46,1424036
2025-09-04 16:47:46,1424089
2025-09-04 16:47:46,1424055
2025-09-04 16:47:46,1424092
2025-09-04 16:47:46,1424316
2025-09-04 16:47:46,1424484
2025-09-04 16:47:46,1424515
2025-09-04 16:47:46,1424657
2025-09-04 16:47:46,1424746
2025-09-04 16:47:46,1424971
2025-09-04 16:47:46,1425051
2025-09-04 16:47:46,1425171
2025-09-04 16:47:46,1425317
2025-09-04 16:47:46,1425489
2025-09-04 16:47:46,1425573
2025-09-04 16:47:46,1425709
2025-09-04 16:47:46,1425894
2025-09-04 16:47:46,1425990
2025-09-04 16:47:46,1426163
2025-09-04 16:47:46,1426263
2025-09-04 16:47:46,1426427
2025-09-04 16:47:46,1426509
2025-09-04 16:47:46,1426742
2025-09-04 16:47:46,1426808
2025-09-04 16:47:46,1426944
2025-09-04 16:47:46,1427080
2025-09-04 16:47:46,1427169
2025-09-04 16:47:46,1427270
2025-09-04 16:47:46,1427504
2025-09-04 16:47:46,1427566
2025-09-04 16:47:46,1427673
2025-09-04 16:47:46,1427780
2025-09-04 16:47:46,1427976
2025-09-04 16:47:46,1428121
2025-09-04 16:47:46,1428201
2025-09-04 16:47:46,1428442
2025-09-04 16:47:46,1428626
2025-09-04 16:47:46,1428692
2025-09-04 16:47:46,1428846
2025-09-04 16:47:46,1428999
2025-09-04 16:47:46,1429203
2025-09-04 16:47:46,1429365
2025-09-04 16:47:46,1429562
2025-09-04 16:47:47,1429642
2025-09-04 16:47:47,1429839
2025-09-04 16:47:47,1429999
2025-09-04 16:47:47,1430207
2025-09-04 16:47:47,1430297
2025-09-04 16:47:47,1430403
2025-09-04 16:47:47,1430066
2025-09-04 16:47:47,1429614
2025-09-04 16:47:47,1428855
2025-09-04 16:47:47,1428179
2025-09-04 16:47:47,1427425
2025-09-04 16:47:47,1426674
2025-09-04 16:47:47,1426051
2025-09-04 16:47:47,1425681
2025-09-04 16:47:47,1425246
2025-09-04 16:47:47,1424810
2025-09-04 16:47:47,1424528
2025-09-04 16:47:47,1424377
2025-09-04 16:47:47,1424269
2025-09-04 16:47:47,1424254
2025-09-04 16:47:47,1424241
2025-09-04 16:47:47,1424337
2025-09-04 16:47:47,1424401
2025-09-04 16:47:47,1424389
2025-09-04 16:47:47,1424574
2025-09-04 16:47:47,1424546
2025-09-04 16:47:47,1424609
2025-09-04 16:47:47,1424732
2025-09-04 16:47:47,1424773
2025-09-04 16:47:47,1424963
2025-09-04 16:47:47,1425082
2025-09-04 16:47:47,1425205
2025-09-04 16:47:47,1425279
2025-09-04 16:47:47,1425401
2025-09-04 16:47:47,1425392
2025-09-04 16:47:47,1425443
2025-09-04 16:47:47,1425522
2025-09-04 16:47:47,1425473
2025-09-04 16:47:47,1425458
2025-09-04 16:47:47,1425451
2025-09-04 16:47:47,1425415
2025-09-04 16:47:47,1425422
2025-09-04 16:47:47,1425384
2025-09-04 16:47:47,1425467
2025-09-04 16:47:47,1425421
2025-09-04 16:47:47,1425570
2025-09-04 16:47:47,1425689
2025-09-04 16:47:47,1425736
2025-09-04 16:47:47,1425920
2025-09-04 16:47:47,1426011
2025-09-04 16:47:47,1426115
2025-09-04 16:47:47,1426295
2025-09-04 16:47:47,1426410
2025-09-04 16:47:47,1426602
2025-09-04 16:47:47,1426795
2025-09-04 16:47:47,1426908
2025-09-04 16:47:47,1427125
2025-09-04 16:47:47,1427326
2025-09-04 16:47:47,1427455
2025-09-04 16:47:47,1427598
2025-09-04 16:47:47,1427805
2025-09-04 16:47:47,1427927
2025-09-04 16:47:47,1428117
2025-09-04 16:47:47,1428349
2025-09-04 16:47:47,1428408
2025-09-04 16:47:47,1428657
2025-09-04 16:47:47,1428823
2025-09-04 16:47:47,1428938
2025-09-04 16:47:47,1429141
2025-09-04 16:47:47,1429243
2025-09-04 16:47:47,1429402
2025-09-04 16:47:47,1429534
2025-09-04 16:47:47,1429664
2025-09-04 16:47:47,1429937
2025-09-04 16:47:47,1430094
2025-09-04 16:47:47,1430125
2025-09-04 16:47:47,1430393
2025-09-04 16:47:47,1430459
2025-09-04 16:47:47,1430756
2025-09-04 16:47:47,1430889
2025-09-04 16:47:47,1431083
2025-09-04 16:47:47,1431209
2025-09-04 16:47:47,1431488
2025-09-04 16:47:47,1431671
2025-09-04 16:47:47,1431796
2025-09-04 16:47:47,1432187
2025-09-04 16:47:47,1432176
2025-09-04 16:47:47,1432450
2025-09-04 16:47:47,1432691
2025-09-04 16:47:47,1432863
2025-09-04 16:47:47,1433072
2025-09-04 16:47:47,1433021
2025-09-04 16:47:47,1432826
2025-09-04 16:47:47,1432334
2025-09-04 16:47:47,1431688
2025-09-04 16:47:47,1431012
2025-09-04 16:47:47,1430223
2025-09-04 16:47:47,1429658
2025-09-04 16:47:47,1428995
2025-09-04 16:47:47,1428419
2025-09-04 16:47:47,1428087
2025-09-04 16:47:47,1427675
2025-09-04 16:47:48,1427448
2025-09-04 16:47:48,1427230
2025-09-04 16:47:48,1427049
2025-09-04 16:47:48,1427111
2025-09-04 16:47:48,1427121
2025-09-04 16:47:48,1427083
2025-09-04 16:47:48,1427251
2025-09-04 16:47:48,1427406
2025-09-04 16:47:48,1427443
2025-09-04 16:47:48,1427602
2025-09-04 16:47:48,1427657
2025-09-04 16:47:48,1427854
2025-09-04 16:47:48,1428007
2025-09-04 16:47:48,1428149
2025-09-04 16:47:48,1428307
2025-09-04 16:47:48,1428512
2025-09-04 16:47:48,1428618
2025-09-04 16:47:48,1428582
2025-09-04 16:47:48,1428726
2025-09-04 16:47:48,1428752
2025-09-04 16:47:48,1428723
2025-09-04 16:47:48,1428709
2025-09-04 16:47:48,1428740
2025-09-04 16:47:48,1428751
2025-09-04 16:47:48,1428705
2025-09-04 16:47:48,1428632
2025-09-04 16:47:48,1428704
2025-09-04 16:47:48,1428785
2025-09-04 16:47:48,1428681
2025-09-04 16:47:48,1428873
2025-09-04 16:47:48,1428918
2025-09-04 16:47:48,1429079
2025-09-04 16:47:48,1429035
2025-09-04 16:47:48,1429260
2025-09-04 16:47:48,1429335
2025-09-04 16:47:48,1429562
2025-09-04 16:47:48,1429600
2025-09-04 16:47:48,1429853
2025-09-04 16:47:48,1429999
2025-09-04 16:47:48,1430250
2025-09-04 16:47:48,1430273
2025-09-04 16:47:48,1430388
2025-09-04 16:47:48,1430633
2025-09-04 16:47:48,1430674
2025-09-04 16:47:48,1430808
2025-09-04 16:47:48,1431037
2025-09-04 16:47:48,1431239
2025-09-04 16:47:48,1431219
2025-09-04 16:47:48,1431471
2025-09-04 16:47:48,1431653
2025-09-04 16:47:48,1431755
2025-09-04 16:47:48,1431892
2025-09-04 16:47:48,1431949
2025-09-04 16:47:48,1432117
2025-09-04 16:47:48,1432188
2025-09-04 16:47:48,1432359
2025-09-04 16:47:48,1432405
2025-09-04 16:47:48,1432514
2025-09-04 16:47:48,1432678
2025-09-04 16:47:48,1432829
2025-09-04 16:47:48,1432925
2025-09-04 16:47:48,1433081
2025-09-04 16:47:48,1433254
2025-09-04 16:47:48,1433343
2025-09-04 16:47:48,1433546
2025-09-04 16:47:48,1433704
2025-09-04 16:47:48,1433922
2025-09-04 16:47:48,1434041
2025-09-04 16:47:48,1434204
2025-09-04 16:47:48,1434360
2025-09-04 16:47:48,1434478
2025-09-04 16:47:48,1434425
2025-09-04 16:47:48,1434185
2025-09-04 16:47:48,1433602
2025-09-04 16:47:48,1432982
2025-09-04 16:47:48,1432290
2025-09-04 16:47:48,1431601
2025-09-04 16:47:48,1430900
2025-09-04 16:47:48,1430406
2025-09-04 16:47:48,1429915
2025-09-04 16:47:48,1429500
2025-09-04 16:47:48,1429217
2025-09-04 16:47:48,1428857
2025-09-04 16:47:48,1428825
2025-09-04 16:47:48,1428726
2025-09-04 16:47:48,1428623
2025-09-04 16:47:48,1428594
2025-09-04 16:47:48,1428694
2025-09-04 16:47:48,1428758
2025-09-04 16:47:48,1428879
2025-09-04 16:47:48,1429081
2025-09-04 16:47:48,1429110
2025-09-04 16:47:48,1429207
2025-09-04 16:47:48,1429438
2025-09-04 16:47:48,1429563
2025-09-04 16:47:48,1429718
