timestamp,value
2025-09-10 18:53:33,-166550
2025-09-10 18:53:33,157248
2025-09-10 18:53:33,124242
2025-09-10 18:53:33,124173
2025-09-10 18:53:33,124107
2025-09-10 18:53:33,124045
2025-09-10 18:53:33,124058
2025-09-10 18:53:33,124015
2025-09-10 18:53:33,123958
2025-09-10 18:53:33,123902
2025-09-10 18:53:33,123797
2025-09-10 18:53:33,123804
2025-09-10 18:53:33,123668
2025-09-10 18:53:34,123579
2025-09-10 18:53:34,123532
2025-09-10 18:53:34,123401
2025-09-10 18:53:34,123394
2025-09-10 18:53:34,123378
2025-09-10 18:53:34,123362
2025-09-10 18:53:34,123375
2025-09-10 18:53:34,123399
2025-09-10 18:53:34,123383
2025-09-10 18:53:34,123407
2025-09-10 18:53:34,123403
2025-09-10 18:53:34,123435
2025-09-10 18:53:34,123435
2025-09-10 18:53:34,123454
2025-09-10 18:53:34,158134
2025-09-10 18:53:34,158176
2025-09-10 18:53:34,158204
2025-09-10 18:53:34,158218
2025-09-10 18:53:34,158264
2025-09-10 18:53:34,158332
2025-09-10 18:53:34,158319
2025-09-10 18:53:34,158381
2025-09-10 18:53:34,158367
2025-09-10 18:53:34,158486
2025-09-10 18:53:34,158447
2025-09-10 18:53:34,158512
2025-09-10 18:53:34,318039
2025-09-10 18:53:34,318107
2025-09-10 18:53:34,317040
2025-09-10 18:53:34,317204
2025-09-10 18:53:34,317303
2025-09-10 18:53:34,317396
2025-09-10 18:53:34,317457
2025-09-10 18:53:34,317474
2025-09-10 18:53:34,317403
2025-09-10 18:53:34,317367
2025-09-10 18:53:34,317444
2025-09-10 18:53:34,317551
2025-09-10 18:53:34,317631
2025-09-10 18:53:34,317694
2025-09-10 18:53:34,1590238
2025-09-10 18:53:34,1590281
2025-09-10 18:53:34,1586230
2025-09-10 18:53:34,1586550
2025-09-10 18:53:34,1586877
2025-09-10 18:53:34,1587123
2025-09-10 18:53:34,1587408
2025-09-10 18:53:34,1587398
2025-09-10 18:53:34,1587403
2025-09-10 18:53:34,1587305
2025-09-10 18:53:34,1587238
2025-09-10 18:53:34,1587214
2025-09-10 18:53:34,1587067
2025-09-10 18:53:34,1587071
2025-09-10 18:53:34,1581580
2025-09-10 18:53:34,1581653
2025-09-10 18:53:34,1587812
2025-09-10 18:53:34,1587682
2025-09-10 18:53:34,1587345
2025-09-10 18:53:34,1587314
2025-09-10 18:53:34,1587277
2025-09-10 18:53:34,1587171
2025-09-10 18:53:34,1587023
2025-09-10 18:53:34,1586586
2025-09-10 18:53:34,1585881
2025-09-10 18:53:34,1585258
2025-09-10 18:53:34,1584490
2025-09-10 18:53:34,1583199
2025-09-10 18:53:34,1581575
2025-09-10 18:53:34,1579718
2025-09-10 18:53:34,1577654
2025-09-10 18:53:34,1575494
2025-09-10 18:53:34,1573521
2025-09-10 18:53:34,1571542
2025-09-10 18:53:34,1569256
2025-09-10 18:53:34,1566890
2025-09-10 18:53:34,1564144
2025-09-10 18:53:34,1561555
2025-09-10 18:53:34,1559620
2025-09-10 18:53:34,1558597
2025-09-10 18:53:34,1558428
2025-09-10 18:53:34,1558281
2025-09-10 18:53:34,1558366
2025-09-10 18:53:34,1558535
2025-09-10 18:53:34,1558567
2025-09-10 18:53:34,1557905
2025-09-10 18:53:34,1557222
2025-09-10 18:53:34,1557052
2025-09-10 18:53:34,1557158
2025-09-10 18:53:34,1556846
2025-09-10 18:53:34,1556465
2025-09-10 18:53:34,1556132
2025-09-10 18:53:34,1556126
2025-09-10 18:53:34,1556533
2025-09-10 18:53:34,1557611
2025-09-10 18:53:34,1558762
2025-09-10 18:53:34,1560167
2025-09-10 18:53:34,1561124
2025-09-10 18:53:34,1561821
2025-09-10 18:53:34,1562687
2025-09-10 18:53:35,1563589
2025-09-10 18:53:35,1564766
2025-09-10 18:53:35,1566605
2025-09-10 18:53:35,1568997
2025-09-10 18:53:35,1571420
2025-09-10 18:53:35,1572980
2025-09-10 18:53:35,1573921
2025-09-10 18:53:35,1575132
2025-09-10 18:53:35,1577144
2025-09-10 18:53:35,1580939
2025-09-10 18:53:35,1585136
2025-09-10 18:53:35,1588406
2025-09-10 18:53:35,1590966
2025-09-10 18:53:35,1592910
2025-09-10 18:53:35,1594049
2025-09-10 18:53:35,1594992
2025-09-10 18:53:35,1595992
2025-09-10 18:53:35,1596487
2025-09-10 18:53:35,1596505
2025-09-10 18:53:35,1596260
2025-09-10 18:53:35,1595524
2025-09-10 18:53:35,1594876
2025-09-10 18:53:35,1594150
2025-09-10 18:53:35,1593864
2025-09-10 18:53:35,1593886
2025-09-10 18:53:35,1594508
2025-09-10 18:53:35,1595117
2025-09-10 18:53:35,1595643
2025-09-10 18:53:35,1596222
2025-09-10 18:53:35,1596569
2025-09-10 18:53:35,1596897
2025-09-10 18:53:35,1597402
2025-09-10 18:53:35,1597806
2025-09-10 18:53:35,1598071
2025-09-10 18:53:35,1597971
2025-09-10 18:53:35,1597980
2025-09-10 18:53:35,1598105
2025-09-10 18:53:35,1598381
2025-09-10 18:53:35,1599206
2025-09-10 18:53:35,1599757
2025-09-10 18:53:35,1600117
2025-09-10 18:53:35,1600563
2025-09-10 18:53:35,1601120
2025-09-10 18:53:35,1601509
2025-09-10 18:53:35,1602095
2025-09-10 18:53:35,1602769
2025-09-10 18:53:35,1603260
2025-09-10 18:53:35,1603540
2025-09-10 18:53:35,1603473
2025-09-10 18:53:35,1602782
2025-09-10 18:53:35,1601417
2025-09-10 18:53:35,1599611
2025-09-10 18:53:35,1597860
2025-09-10 18:53:35,1596269
2025-09-10 18:53:35,1595152
2025-09-10 18:53:35,1593919
2025-09-10 18:53:35,1592954
2025-09-10 18:53:35,1592254
2025-09-10 18:53:35,1591656
2025-09-10 18:53:35,1591096
2025-09-10 18:53:35,1589996
2025-09-10 18:53:35,1588850
2025-09-10 18:53:35,1588918
2025-09-10 18:53:35,1588590
2025-09-10 18:53:35,1588051
2025-09-10 18:53:35,1588162
2025-09-10 18:53:35,1588406
2025-09-10 18:53:35,1588006
2025-09-10 18:53:35,1587500
2025-09-10 18:53:35,1587064
2025-09-10 18:53:35,1586761
2025-09-10 18:53:35,1586648
2025-09-10 18:53:35,1586696
2025-09-10 18:53:35,1586656
2025-09-10 18:53:35,1586721
2025-09-10 18:53:35,1586783
2025-09-10 18:53:35,1586624
2025-09-10 18:53:35,1586471
2025-09-10 18:53:35,1586221
2025-09-10 18:53:35,1585801
2025-09-10 18:53:35,1585314
2025-09-10 18:53:35,1584841
2025-09-10 18:53:35,1584358
2025-09-10 18:53:35,1583754
2025-09-10 18:53:35,1583203
2025-09-10 18:53:35,1582554
2025-09-10 18:53:35,1581929
2025-09-10 18:53:35,1581324
2025-09-10 18:53:35,1580683
2025-09-10 18:53:35,1580032
2025-09-10 18:53:35,1579555
2025-09-10 18:53:35,1578885
2025-09-10 18:53:35,1578353
2025-09-10 18:53:35,1577924
2025-09-10 18:53:35,1577544
2025-09-10 18:53:35,1577146
2025-09-10 18:53:35,1576793
2025-09-10 18:53:35,1576487
2025-09-10 18:53:35,1576189
2025-09-10 18:53:35,1576072
2025-09-10 18:53:36,1575892
2025-09-10 18:53:36,1575822
2025-09-10 18:53:36,1575700
2025-09-10 18:53:36,1575686
2025-09-10 18:53:36,1575737
2025-09-10 18:53:36,1575622
2025-09-10 18:53:36,1575637
2025-09-10 18:53:36,1575644
2025-09-10 18:53:36,1575715
2025-09-10 18:53:36,1575696
2025-09-10 18:53:36,1575846
2025-09-10 18:53:36,1575883
2025-09-10 18:53:36,1575862
2025-09-10 18:53:36,1576000
2025-09-10 18:53:36,1576031
2025-09-10 18:53:36,1576021
2025-09-10 18:53:36,1575735
2025-09-10 18:53:36,1575240
2025-09-10 18:53:36,1574358
2025-09-10 18:53:36,1573451
2025-09-10 18:53:36,1572525
2025-09-10 18:53:36,1571706
2025-09-10 18:53:36,1571052
2025-09-10 18:53:36,1570366
2025-09-10 18:53:36,1569941
2025-09-10 18:53:36,1569517
2025-09-10 18:53:36,1569101
2025-09-10 18:53:36,1568840
2025-09-10 18:53:36,1568648
2025-09-10 18:53:36,1568421
2025-09-10 18:53:36,1568222
2025-09-10 18:53:36,1568066
2025-09-10 18:53:36,1567936
2025-09-10 18:53:36,1567777
2025-09-10 18:53:36,1567695
2025-09-10 18:53:36,1567585
2025-09-10 18:53:36,1567555
2025-09-10 18:53:36,1567467
2025-09-10 18:53:36,1567363
2025-09-10 18:53:36,1567338
2025-09-10 18:53:36,1567376
2025-09-10 18:53:36,1567385
2025-09-10 18:53:36,1567447
2025-09-10 18:53:36,1567480
2025-09-10 18:53:36,1567629
2025-09-10 18:53:36,1567657
2025-09-10 18:53:36,1567861
2025-09-10 18:53:36,1567920
2025-09-10 18:53:36,1568109
2025-09-10 18:53:36,1568009
2025-09-10 18:53:36,1568055
2025-09-10 18:53:36,1568156
2025-09-10 18:53:36,1568146
2025-09-10 18:53:36,1568144
2025-09-10 18:53:36,1568055
2025-09-10 18:53:36,1568063
2025-09-10 18:53:36,1568021
2025-09-10 18:53:36,1567921
2025-09-10 18:53:36,1567946
2025-09-10 18:53:36,1567936
2025-09-10 18:53:36,1567977
2025-09-10 18:53:36,1567932
2025-09-10 18:53:36,1568098
2025-09-10 18:53:36,1568045
2025-09-10 18:53:36,1568115
2025-09-10 18:53:36,1568129
2025-09-10 18:53:36,1568178
2025-09-10 18:53:36,1568243
2025-09-10 18:53:36,1568380
2025-09-10 18:53:36,1568440
2025-09-10 18:53:36,1568572
2025-09-10 18:53:36,1568695
2025-09-10 18:53:36,1568686
2025-09-10 18:53:36,1568860
2025-09-10 18:53:36,1568935
2025-09-10 18:53:36,1569021
2025-09-10 18:53:36,1569144
2025-09-10 18:53:36,1569239
2025-09-10 18:53:36,1569448
2025-09-10 18:53:36,1569510
2025-09-10 18:53:36,1569634
2025-09-10 18:53:36,1569679
2025-09-10 18:53:36,1569845
2025-09-10 18:53:36,1569897
2025-09-10 18:53:36,1569719
2025-09-10 18:53:36,1569188
2025-09-10 18:53:36,1568368
2025-09-10 18:53:36,1567465
2025-09-10 18:53:36,1566624
2025-09-10 18:53:36,1565937
2025-09-10 18:53:36,1565274
2025-09-10 18:53:36,1564787
2025-09-10 18:53:36,1564277
2025-09-10 18:53:36,1563965
2025-09-10 18:53:36,1563653
2025-09-10 18:53:36,1563343
2025-09-10 18:53:36,1563192
2025-09-10 18:53:36,1562987
2025-09-10 18:53:36,1562836
2025-09-10 18:53:36,1562780
2025-09-10 18:53:37,1562698
2025-09-10 18:53:37,1562515
2025-09-10 18:53:37,1562465
2025-09-10 18:53:37,1562371
2025-09-10 18:53:37,1562357
2025-09-10 18:53:37,1562289
2025-09-10 18:53:37,1562362
2025-09-10 18:53:37,1562337
2025-09-10 18:53:37,1562388
2025-09-10 18:53:37,1562492
2025-09-10 18:53:37,1562626
2025-09-10 18:53:37,1562720
2025-09-10 18:53:37,1562856
2025-09-10 18:53:37,1562992
2025-09-10 18:53:37,1563197
2025-09-10 18:53:37,1563355
2025-09-10 18:53:37,1563455
2025-09-10 18:53:37,1563548
2025-09-10 18:53:37,1563576
2025-09-10 18:53:37,1563636
2025-09-10 18:53:37,1563693
2025-09-10 18:53:37,1563707
2025-09-10 18:53:37,1563785
2025-09-10 18:53:37,1563735
2025-09-10 18:53:37,1563770
2025-09-10 18:53:37,1563766
2025-09-10 18:53:37,1563685
2025-09-10 18:53:37,1563898
2025-09-10 18:53:37,1563772
2025-09-10 18:53:37,1563955
2025-09-10 18:53:37,1564072
2025-09-10 18:53:37,1564130
2025-09-10 18:53:37,1564186
2025-09-10 18:53:37,1564252
2025-09-10 18:53:37,1564348
2025-09-10 18:53:37,1564475
2025-09-10 18:53:37,1564556
2025-09-10 18:53:37,1564642
2025-09-10 18:53:37,1564758
2025-09-10 18:53:37,1564883
2025-09-10 18:53:37,1565007
2025-09-10 18:53:37,1565162
2025-09-10 18:53:37,1565303
2025-09-10 18:53:37,1565456
2025-09-10 18:53:37,1565506
2025-09-10 18:53:37,1565677
2025-09-10 18:53:37,1565819
2025-09-10 18:53:37,1565976
2025-09-10 18:53:37,1566058
2025-09-10 18:53:37,1566026
2025-09-10 18:53:37,1565835
2025-09-10 18:53:37,1565311
2025-09-10 18:53:37,1564621
2025-09-10 18:53:37,1563709
2025-09-10 18:53:37,1562969
2025-09-10 18:53:37,1562301
2025-09-10 18:53:37,1561683
2025-09-10 18:53:37,1561176
2025-09-10 18:53:37,1560729
2025-09-10 18:53:37,1560453
2025-09-10 18:53:37,1560101
2025-09-10 18:53:37,1559958
2025-09-10 18:53:37,1559717
2025-09-10 18:53:37,1559590
2025-09-10 18:53:37,1559396
2025-09-10 18:53:37,1559301
2025-09-10 18:53:37,1559299
2025-09-10 18:53:37,1559244
2025-09-10 18:53:37,1559259
2025-09-10 18:53:37,1559189
2025-09-10 18:53:37,1559176
2025-09-10 18:53:37,1559269
2025-09-10 18:53:37,1559262
2025-09-10 18:53:37,1559268
2025-09-10 18:53:37,1559415
2025-09-10 18:53:37,1559577
2025-09-10 18:53:37,1559711
2025-09-10 18:53:37,1559937
2025-09-10 18:53:37,1560091
2025-09-10 18:53:37,1560243
2025-09-10 18:53:37,1560452
2025-09-10 18:53:37,1560620
2025-09-10 18:53:37,1560774
2025-09-10 18:53:37,1560911
2025-09-10 18:53:37,1560952
2025-09-10 18:53:37,1560937
2025-09-10 18:53:37,1560986
2025-09-10 18:53:37,1561031
2025-09-10 18:53:37,1561079
2025-09-10 18:53:37,1561072
2025-09-10 18:53:37,1561062
2025-09-10 18:53:37,1561139
2025-09-10 18:53:37,1561214
2025-09-10 18:53:37,1561284
2025-09-10 18:53:37,1561305
2025-09-10 18:53:37,1561255
2025-09-10 18:53:37,1561403
2025-09-10 18:53:37,1561476
2025-09-10 18:53:37,1561564
2025-09-10 18:53:37,1561695
2025-09-10 18:53:38,1561687
2025-09-10 18:53:38,1561858
2025-09-10 18:53:38,1561998
2025-09-10 18:53:38,1562084
2025-09-10 18:53:38,1562198
2025-09-10 18:53:38,1562452
2025-09-10 18:53:38,1562610
2025-09-10 18:53:38,1562759
2025-09-10 18:53:38,1562891
2025-09-10 18:53:38,1563040
2025-09-10 18:53:38,1563201
2025-09-10 18:53:38,1563295
2025-09-10 18:53:38,1563254
2025-09-10 18:53:38,1562945
2025-09-10 18:53:38,1562398
2025-09-10 18:53:38,1561566
2025-09-10 18:53:38,1560720
2025-09-10 18:53:38,1559983
2025-09-10 18:53:38,1559354
2025-09-10 18:53:38,1558814
2025-09-10 18:53:38,1558349
2025-09-10 18:53:38,1557928
2025-09-10 18:53:38,1557550
2025-09-10 18:53:38,1557364
2025-09-10 18:53:38,1557151
2025-09-10 18:53:38,1557043
2025-09-10 18:53:38,1556916
2025-09-10 18:53:38,1556836
2025-09-10 18:53:38,1556772
2025-09-10 18:53:38,1556661
2025-09-10 18:53:38,1556772
2025-09-10 18:53:38,1556661
2025-09-10 18:53:38,1556779
2025-09-10 18:53:38,1556710
2025-09-10 18:53:38,1556815
2025-09-10 18:53:38,1556831
2025-09-10 18:53:38,1556944
2025-09-10 18:53:38,1557137
2025-09-10 18:53:38,1557361
2025-09-10 18:53:38,1557603
2025-09-10 18:53:38,1557727
2025-09-10 18:53:38,1558036
2025-09-10 18:53:38,1558167
2025-09-10 18:53:38,1558326
2025-09-10 18:53:38,1558487
2025-09-10 18:53:38,1558611
2025-09-10 18:53:38,1558604
2025-09-10 18:53:38,1558708
2025-09-10 18:53:38,1558719
2025-09-10 18:53:38,1558699
2025-09-10 18:53:38,1558806
2025-09-10 18:53:38,1558777
2025-09-10 18:53:38,1558835
2025-09-10 18:53:38,1558804
2025-09-10 18:53:38,1558881
2025-09-10 18:53:38,1558884
2025-09-10 18:53:38,1558947
2025-09-10 18:53:38,1559064
2025-09-10 18:53:38,1559050
2025-09-10 18:53:38,1559205
2025-09-10 18:53:38,1559223
2025-09-10 18:53:38,1559337
2025-09-10 18:53:38,1559482
2025-09-10 18:53:38,1559592
2025-09-10 18:53:38,1559669
2025-09-10 18:53:38,1559854
2025-09-10 18:53:38,1559962
2025-09-10 18:53:38,1560077
2025-09-10 18:53:38,1560238
2025-09-10 18:53:38,1560372
2025-09-10 18:53:38,1560482
2025-09-10 18:53:38,1560657
2025-09-10 18:53:38,1560751
2025-09-10 18:53:38,1560944
2025-09-10 18:53:38,1561033
2025-09-10 18:53:38,1561192
2025-09-10 18:53:38,1561346
2025-09-10 18:53:38,1561373
2025-09-10 18:53:38,1561069
2025-09-10 18:53:38,1560668
2025-09-10 18:53:38,1559856
2025-09-10 18:53:38,1558959
2025-09-10 18:53:38,1558170
2025-09-10 18:53:38,1557413
2025-09-10 18:53:38,1556750
2025-09-10 18:53:38,1556233
2025-09-10 18:53:38,1555792
2025-09-10 18:53:38,1555301
2025-09-10 18:53:38,1554990
2025-09-10 18:53:38,1554760
2025-09-10 18:53:38,1554501
2025-09-10 18:53:38,1554418
2025-09-10 18:53:38,1554295
2025-09-10 18:53:38,1554263
2025-09-10 18:53:38,1554152
2025-09-10 18:53:38,1554141
2025-09-10 18:53:38,1554152
2025-09-10 18:53:38,1554116
2025-09-10 18:53:38,1554134
2025-09-10 18:53:38,1554218
2025-09-10 18:53:39,1554281
2025-09-10 18:53:39,1554473
2025-09-10 18:53:39,1554621
2025-09-10 18:53:39,1554761
2025-09-10 18:53:39,1554986
2025-09-10 18:53:39,1555256
2025-09-10 18:53:39,1555408
2025-09-10 18:53:39,1555444
2025-09-10 18:53:39,1555657
2025-09-10 18:53:39,1555874
2025-09-10 18:53:39,1555882
2025-09-10 18:53:39,1555938
2025-09-10 18:53:39,1556062
2025-09-10 18:53:39,1555952
2025-09-10 18:53:39,1555963
2025-09-10 18:53:39,1555989
2025-09-10 18:53:39,1555981
2025-09-10 18:53:39,1556011
2025-09-10 18:53:39,1556000
2025-09-10 18:53:39,1556092
2025-09-10 18:53:39,1556032
2025-09-10 18:53:39,1556125
2025-09-10 18:53:39,1556284
2025-09-10 18:53:39,1556255
2025-09-10 18:53:39,1556395
2025-09-10 18:53:39,1556451
2025-09-10 18:53:39,1556603
2025-09-10 18:53:39,1556667
2025-09-10 18:53:39,1556812
2025-09-10 18:53:39,1556884
2025-09-10 18:53:39,1557113
2025-09-10 18:53:39,1557265
2025-09-10 18:53:39,1557358
2025-09-10 18:53:39,1557504
2025-09-10 18:53:39,1557589
2025-09-10 18:53:39,1557748
2025-09-10 18:53:39,1557916
2025-09-10 18:53:39,1558041
2025-09-10 18:53:39,1558143
2025-09-10 18:53:39,1558318
2025-09-10 18:53:39,1558417
2025-09-10 18:53:39,1558516
2025-09-10 18:53:39,1558630
2025-09-10 18:53:39,1558823
2025-09-10 18:53:39,1558901
2025-09-10 18:53:39,1559020
2025-09-10 18:53:39,1559110
2025-09-10 18:53:39,1559340
2025-09-10 18:53:39,1559494
2025-09-10 18:53:39,1559593
2025-09-10 18:53:39,1559630
2025-09-10 18:53:39,1559573
2025-09-10 18:53:39,1559120
2025-09-10 18:53:39,1558347
2025-09-10 18:53:39,1557364
2025-09-10 18:53:39,1556336
2025-09-10 18:53:39,1555536
2025-09-10 18:53:39,1554846
2025-09-10 18:53:39,1554215
2025-09-10 18:53:39,1553501
2025-09-10 18:53:39,1553010
2025-09-10 18:53:39,1552596
2025-09-10 18:53:39,1552215
2025-09-10 18:53:39,1551933
2025-09-10 18:53:39,1551637
2025-09-10 18:53:39,1551604
2025-09-10 18:53:39,1551432
2025-09-10 18:53:39,1551257
2025-09-10 18:53:39,1551149
2025-09-10 18:53:39,1551133
2025-09-10 18:53:39,1551098
2025-09-10 18:53:39,1551078
2025-09-10 18:53:39,1551095
2025-09-10 18:53:39,1551083
2025-09-10 18:53:39,1551105
2025-09-10 18:53:39,1551223
2025-09-10 18:53:39,1551395
2025-09-10 18:53:39,1551466
2025-09-10 18:53:39,1551639
2025-09-10 18:53:39,1551772
2025-09-10 18:53:39,1552036
2025-09-10 18:53:39,1552191
2025-09-10 18:53:39,1552387
2025-09-10 18:53:39,1552479
2025-09-10 18:53:39,1552605
2025-09-10 18:53:39,1552729
2025-09-10 18:53:39,1552754
2025-09-10 18:53:39,1552795
2025-09-10 18:53:39,1552837
2025-09-10 18:53:39,1552880
2025-09-10 18:53:39,1552852
2025-09-10 18:53:39,1552840
2025-09-10 18:53:39,1552890
2025-09-10 18:53:39,1552880
2025-09-10 18:53:39,1552907
2025-09-10 18:53:39,1552966
2025-09-10 18:53:39,1553001
2025-09-10 18:53:39,1552967
2025-09-10 18:53:39,1553183
2025-09-10 18:53:40,1553196
2025-09-10 18:53:40,1553362
2025-09-10 18:53:40,1553434
2025-09-10 18:53:40,1553565
2025-09-10 18:53:40,1553594
2025-09-10 18:53:40,1553830
2025-09-10 18:53:40,1553915
2025-09-10 18:53:40,1554104
2025-09-10 18:53:40,1554296
2025-09-10 18:53:40,1554423
2025-09-10 18:53:40,1554576
2025-09-10 18:53:40,1554733
2025-09-10 18:53:40,1554838
2025-09-10 18:53:40,1554949
2025-09-10 18:53:40,1555137
2025-09-10 18:53:40,1555180
2025-09-10 18:53:40,1555396
2025-09-10 18:53:40,1555524
2025-09-10 18:53:40,1555640
2025-09-10 18:53:40,1555803
2025-09-10 18:53:40,1555889
2025-09-10 18:53:40,1555994
2025-09-10 18:53:40,1556185
2025-09-10 18:53:40,1556315
2025-09-10 18:53:40,1556559
2025-09-10 18:53:40,1556615
2025-09-10 18:53:40,1556785
2025-09-10 18:53:40,1556903
2025-09-10 18:53:40,1556837
2025-09-10 18:53:40,1556556
2025-09-10 18:53:40,1555965
2025-09-10 18:53:40,1555034
2025-09-10 18:53:40,1554130
2025-09-10 18:53:40,1553210
2025-09-10 18:53:40,1552402
2025-09-10 18:53:40,1551670
2025-09-10 18:53:40,1551091
2025-09-10 18:53:40,1550509
2025-09-10 18:53:40,1550082
2025-09-10 18:53:40,1549673
2025-09-10 18:53:40,1549425
2025-09-10 18:53:40,1549196
2025-09-10 18:53:40,1548907
2025-09-10 18:53:40,1548917
2025-09-10 18:53:40,1548829
2025-09-10 18:53:40,1548708
2025-09-10 18:53:40,1548715
2025-09-10 18:53:40,1548696
2025-09-10 18:53:40,1548756
2025-09-10 18:53:40,1548701
2025-09-10 18:53:40,1548733
2025-09-10 18:53:40,1548781
2025-09-10 18:53:40,1548925
2025-09-10 18:53:40,1549030
2025-09-10 18:53:40,1549095
2025-09-10 18:53:40,1549334
2025-09-10 18:53:40,1549530
2025-09-10 18:53:40,1549760
2025-09-10 18:53:40,1549970
2025-09-10 18:53:40,1550127
2025-09-10 18:53:40,1550187
2025-09-10 18:53:40,1550331
2025-09-10 18:53:40,1550449
2025-09-10 18:53:40,1550614
2025-09-10 18:53:40,1550654
2025-09-10 18:53:40,1550678
2025-09-10 18:53:40,1550636
2025-09-10 18:53:40,1550725
2025-09-10 18:53:40,1550666
2025-09-10 18:53:40,1550752
2025-09-10 18:53:40,1550732
2025-09-10 18:53:40,1550725
2025-09-10 18:53:40,1550767
2025-09-10 18:53:40,1550827
2025-09-10 18:53:40,1550826
2025-09-10 18:53:40,1551007
2025-09-10 18:53:40,1551072
2025-09-10 18:53:40,1551190
2025-09-10 18:53:40,1551318
2025-09-10 18:53:40,1551341
2025-09-10 18:53:40,1551553
2025-09-10 18:53:40,1551729
2025-09-10 18:53:40,1551915
2025-09-10 18:53:40,1552005
2025-09-10 18:53:40,1552159
2025-09-10 18:53:40,1552209
2025-09-10 18:53:40,1552454
2025-09-10 18:53:40,1552580
2025-09-10 18:53:40,1552737
2025-09-10 18:53:40,1552867
2025-09-10 18:53:40,1553052
2025-09-10 18:53:40,1553256
2025-09-10 18:53:40,1553300
2025-09-10 18:53:40,1553517
2025-09-10 18:53:40,1553713
2025-09-10 18:53:40,1553821
2025-09-10 18:53:40,1553974
2025-09-10 18:53:40,1554101
2025-09-10 18:53:40,1554253
2025-09-10 18:53:40,1554340
2025-09-10 18:53:41,1554524
2025-09-10 18:53:41,1554655
2025-09-10 18:53:41,1554818
2025-09-10 18:53:41,1554972
2025-09-10 18:53:41,1555113
2025-09-10 18:53:41,1555238
2025-09-10 18:53:41,1555408
2025-09-10 18:53:41,1555557
2025-09-10 18:53:41,1555760
2025-09-10 18:53:41,1555891
2025-09-10 18:53:41,1555939
2025-09-10 18:53:41,1555974
2025-09-10 18:53:41,1555756
2025-09-10 18:53:41,1555115
2025-09-10 18:53:41,1554149
2025-09-10 18:53:41,1553070
2025-09-10 18:53:41,1552149
2025-09-10 18:53:41,1551226
2025-09-10 18:53:41,1550464
2025-09-10 18:53:41,1549812
2025-09-10 18:53:41,1549255
2025-09-10 18:53:41,1548725
2025-09-10 18:53:41,1548362
2025-09-10 18:53:41,1547992
2025-09-10 18:53:41,1547759
2025-09-10 18:53:41,1547662
2025-09-10 18:53:41,1547507
2025-09-10 18:53:41,1547499
2025-09-10 18:53:41,1547351
2025-09-10 18:53:41,1547490
2025-09-10 18:53:41,1547486
2025-09-10 18:53:41,1547471
2025-09-10 18:53:41,1547634
2025-09-10 18:53:41,1547614
2025-09-10 18:53:41,1547740
2025-09-10 18:53:41,1547868
2025-09-10 18:53:41,1548039
2025-09-10 18:53:41,1548155
2025-09-10 18:53:41,1548321
2025-09-10 18:53:41,1548576
2025-09-10 18:53:41,1548845
2025-09-10 18:53:41,1549057
2025-09-10 18:53:41,1549207
2025-09-10 18:53:41,1549281
2025-09-10 18:53:41,1549438
2025-09-10 18:53:41,1549519
2025-09-10 18:53:41,1549580
2025-09-10 18:53:41,1549662
2025-09-10 18:53:41,1549669
2025-09-10 18:53:41,1549608
2025-09-10 18:53:41,1549586
2025-09-10 18:53:41,1549570
2025-09-10 18:53:41,1549640
2025-09-10 18:53:41,1549664
2025-09-10 18:53:41,1549678
2025-09-10 18:53:41,1549713
2025-09-10 18:53:41,1549686
2025-09-10 18:53:41,1549872
2025-09-10 18:53:41,1549849
2025-09-10 18:53:41,1550021
2025-09-10 18:53:41,1550111
2025-09-10 18:53:41,1550126
2025-09-10 18:53:41,1550324
2025-09-10 18:53:41,1550497
2025-09-10 18:53:41,1550583
2025-09-10 18:53:41,1550717
2025-09-10 18:53:41,1550971
2025-09-10 18:53:41,1551038
2025-09-10 18:53:41,1551267
2025-09-10 18:53:41,1551385
2025-09-10 18:53:41,1551483
2025-09-10 18:53:41,1551720
2025-09-10 18:53:41,1551864
2025-09-10 18:53:41,1551952
2025-09-10 18:53:41,1552078
2025-09-10 18:53:41,1552278
2025-09-10 18:53:41,1552363
2025-09-10 18:53:41,1552603
2025-09-10 18:53:41,1552663
2025-09-10 18:53:41,1552801
2025-09-10 18:53:41,1553062
2025-09-10 18:53:41,1553155
2025-09-10 18:53:41,1553261
2025-09-10 18:53:41,1553346
2025-09-10 18:53:41,1553587
2025-09-10 18:53:41,1553714
2025-09-10 18:53:41,1553883
2025-09-10 18:53:41,1553992
2025-09-10 18:53:41,1554029
2025-09-10 18:53:41,1554219
2025-09-10 18:53:41,1554349
2025-09-10 18:53:41,1554565
2025-09-10 18:53:41,1554628
2025-09-10 18:53:41,1554821
2025-09-10 18:53:41,1554917
2025-09-10 18:53:41,1554990
2025-09-10 18:53:41,1555091
2025-09-10 18:53:41,1554703
2025-09-10 18:53:41,1553967
2025-09-10 18:53:41,1552907
2025-09-10 18:53:42,1551874
2025-09-10 18:53:42,1550895
2025-09-10 18:53:42,1550170
2025-09-10 18:53:42,1549390
2025-09-10 18:53:42,1548681
2025-09-10 18:53:42,1548122
2025-09-10 18:53:42,1547663
2025-09-10 18:53:42,1547318
2025-09-10 18:53:42,1546990
2025-09-10 18:53:42,1546855
2025-09-10 18:53:42,1546703
2025-09-10 18:53:42,1546629
2025-09-10 18:53:42,1546568
2025-09-10 18:53:42,1546611
2025-09-10 18:53:42,1546578
2025-09-10 18:53:42,1546760
2025-09-10 18:53:42,1546792
2025-09-10 18:53:42,1546875
2025-09-10 18:53:42,1546972
2025-09-10 18:53:42,1547076
2025-09-10 18:53:42,1547291
2025-09-10 18:53:42,1547434
2025-09-10 18:53:42,1547605
2025-09-10 18:53:42,1547852
2025-09-10 18:53:42,1548075
2025-09-10 18:53:42,1548348
2025-09-10 18:53:42,1548552
2025-09-10 18:53:42,1548714
2025-09-10 18:53:42,1548811
2025-09-10 18:53:42,1549006
2025-09-10 18:53:42,1549035
2025-09-10 18:53:42,1549022
2025-09-10 18:53:42,1549047
2025-09-10 18:53:42,1549055
2025-09-10 18:53:42,1549046
2025-09-10 18:53:42,1549037
2025-09-10 18:53:42,1549045
2025-09-10 18:53:42,1549025
2025-09-10 18:53:42,1549123
2025-09-10 18:53:42,1549082
2025-09-10 18:53:42,1549228
2025-09-10 18:53:42,1549287
2025-09-10 18:53:42,1549397
2025-09-10 18:53:42,1549414
2025-09-10 18:53:42,1549506
2025-09-10 18:53:42,1549653
2025-09-10 18:53:42,1549706
2025-09-10 18:53:42,1549898
2025-09-10 18:53:42,1550079
2025-09-10 18:53:42,1550261
2025-09-10 18:53:42,1550369
2025-09-10 18:53:42,1550482
2025-09-10 18:53:42,1550761
2025-09-10 18:53:42,1550830
2025-09-10 18:53:42,1551002
2025-09-10 18:53:42,1551197
2025-09-10 18:53:42,1551338
2025-09-10 18:53:42,1551514
2025-09-10 18:53:42,1551601
2025-09-10 18:53:42,1551797
2025-09-10 18:53:42,1551977
2025-09-10 18:53:42,1552080
2025-09-10 18:53:42,1552290
2025-09-10 18:53:42,1552454
2025-09-10 18:53:42,1552533
2025-09-10 18:53:42,1552681
2025-09-10 18:53:42,1552827
2025-09-10 18:53:42,1552992
2025-09-10 18:53:42,1553082
2025-09-10 18:53:42,1553244
2025-09-10 18:53:42,1553386
2025-09-10 18:53:42,1553529
2025-09-10 18:53:42,1553542
2025-09-10 18:53:42,1553793
2025-09-10 18:53:42,1553879
2025-09-10 18:53:42,1554056
2025-09-10 18:53:42,1554204
2025-09-10 18:53:42,1554459
2025-09-10 18:53:42,1554508
2025-09-10 18:53:42,1554674
2025-09-10 18:53:42,1554742
2025-09-10 18:53:42,1554950
2025-09-10 18:53:42,1554950
2025-09-10 18:53:42,1554889
2025-09-10 18:53:42,1554545
2025-09-10 18:53:42,1553607
2025-09-10 18:53:42,1552587
2025-09-10 18:53:42,1551458
2025-09-10 18:53:42,1550451
2025-09-10 18:53:42,1549633
2025-09-10 18:53:42,1548919
2025-09-10 18:53:42,1548211
2025-09-10 18:53:42,1547678
2025-09-10 18:53:42,1547199
2025-09-10 18:53:42,1546806
2025-09-10 18:53:42,1546588
2025-09-10 18:53:42,1546323
2025-09-10 18:53:42,1546165
2025-09-10 18:53:42,1546140
2025-09-10 18:53:42,1546049
2025-09-10 18:53:43,1546114
2025-09-10 18:53:43,1546169
2025-09-10 18:53:43,1546225
2025-09-10 18:53:43,1546274
2025-09-10 18:53:43,1546388
2025-09-10 18:53:43,1546559
2025-09-10 18:53:43,1546628
2025-09-10 18:53:43,1546795
2025-09-10 18:53:43,1546966
2025-09-10 18:53:43,1547101
2025-09-10 18:53:43,1547384
2025-09-10 18:53:43,1547548
2025-09-10 18:53:43,1547879
2025-09-10 18:53:43,1548063
2025-09-10 18:53:43,1548310
2025-09-10 18:53:43,1548359
2025-09-10 18:53:43,1548609
2025-09-10 18:53:43,1548658
2025-09-10 18:53:43,1548670
2025-09-10 18:53:43,1548761
2025-09-10 18:53:43,1548750
2025-09-10 18:53:43,1548782
2025-09-10 18:53:43,1548745
2025-09-10 18:53:43,1548752
2025-09-10 18:53:43,1548766
2025-09-10 18:53:43,1548799
2025-09-10 18:53:43,1548808
2025-09-10 18:53:43,1548839
2025-09-10 18:53:43,1548943
2025-09-10 18:53:43,1548976
2025-09-10 18:53:43,1549018
2025-09-10 18:53:43,1549149
2025-09-10 18:53:43,1549238
2025-09-10 18:53:43,1549405
2025-09-10 18:53:43,1549512
2025-09-10 18:53:43,1549721
2025-09-10 18:53:43,1549862
2025-09-10 18:53:43,1549984
2025-09-10 18:53:43,1550220
2025-09-10 18:53:43,1550369
2025-09-10 18:53:43,1550448
2025-09-10 18:53:43,1550692
2025-09-10 18:53:43,1550836
2025-09-10 18:53:43,1551005
2025-09-10 18:53:43,1551134
2025-09-10 18:53:43,1551341
2025-09-10 18:53:43,1551445
2025-09-10 18:53:43,1551601
2025-09-10 18:53:43,1551780
2025-09-10 18:53:43,1551949
2025-09-10 18:53:43,1552141
2025-09-10 18:53:43,1552313
2025-09-10 18:53:43,1552439
2025-09-10 18:53:43,1552576
2025-09-10 18:53:43,1552695
2025-09-10 18:53:43,1552884
2025-09-10 18:53:43,1553071
2025-09-10 18:53:43,1553194
2025-09-10 18:53:43,1553301
2025-09-10 18:53:43,1553425
2025-09-10 18:53:43,1553565
2025-09-10 18:53:43,1553760
2025-09-10 18:53:43,1553845
2025-09-10 18:53:43,1554014
2025-09-10 18:53:43,1554127
2025-09-10 18:53:43,1554355
2025-09-10 18:53:43,1554521
2025-09-10 18:53:43,1554571
2025-09-10 18:53:43,1554680
2025-09-10 18:53:43,1554865
2025-09-10 18:53:43,1554831
2025-09-10 18:53:43,1554442
2025-09-10 18:53:43,1553699
2025-09-10 18:53:43,1552617
2025-09-10 18:53:43,1551450
2025-09-10 18:53:43,1550534
2025-09-10 18:53:43,1549637
2025-09-10 18:53:43,1548817
2025-09-10 18:53:43,1548185
2025-09-10 18:53:43,1547576
2025-09-10 18:53:43,1547076
2025-09-10 18:53:43,1546743
2025-09-10 18:53:43,1546484
2025-09-10 18:53:43,1546204
2025-09-10 18:53:43,1545962
2025-09-10 18:53:43,1545990
2025-09-10 18:53:43,1546015
2025-09-10 18:53:43,1545967
2025-09-10 18:53:43,1546045
2025-09-10 18:53:43,1546093
2025-09-10 18:53:43,1546196
2025-09-10 18:53:43,1546331
2025-09-10 18:53:43,1546430
2025-09-10 18:53:43,1546707
2025-09-10 18:53:43,1546733
2025-09-10 18:53:43,1546879
2025-09-10 18:53:43,1547091
2025-09-10 18:53:43,1547439
2025-09-10 18:53:43,1547550
2025-09-10 18:53:43,1547871
2025-09-10 18:53:44,1548099
2025-09-10 18:53:44,1548329
2025-09-10 18:53:44,1548516
2025-09-10 18:53:44,1548637
2025-09-10 18:53:44,1548768
2025-09-10 18:53:44,1548797
2025-09-10 18:53:44,1548862
2025-09-10 18:53:44,1548868
2025-09-10 18:53:44,1548841
2025-09-10 18:53:44,1548831
2025-09-10 18:53:44,1548869
2025-09-10 18:53:44,1548838
2025-09-10 18:53:44,1548863
2025-09-10 18:53:44,1548827
2025-09-10 18:53:44,1549006
2025-09-10 18:53:44,1549007
2025-09-10 18:53:44,1549111
2025-09-10 18:53:44,1549144
2025-09-10 18:53:44,1549254
2025-09-10 18:53:44,1549309
2025-09-10 18:53:44,1549436
2025-09-10 18:53:44,1549618
2025-09-10 18:53:44,1549762
2025-09-10 18:53:44,1549868
2025-09-10 18:53:44,1550014
2025-09-10 18:53:44,1550214
2025-09-10 18:53:44,1550378
2025-09-10 18:53:44,1550576
2025-09-10 18:53:44,1550719
2025-09-10 18:53:44,1550907
2025-09-10 18:53:44,1551064
2025-09-10 18:53:44,1551213
2025-09-10 18:53:44,1551362
2025-09-10 18:53:44,1551517
2025-09-10 18:53:44,1551715
2025-09-10 18:53:44,1551799
2025-09-10 18:53:44,1552070
2025-09-10 18:53:44,1552166
2025-09-10 18:53:44,1552315
2025-09-10 18:53:44,1552453
2025-09-10 18:53:44,1552654
2025-09-10 18:53:44,1552762
2025-09-10 18:53:44,1552914
2025-09-10 18:53:44,1553111
2025-09-10 18:53:44,1553166
2025-09-10 18:53:44,1553362
2025-09-10 18:53:44,1553520
2025-09-10 18:53:44,1553656
2025-09-10 18:53:44,1553757
2025-09-10 18:53:44,1553934
2025-09-10 18:53:44,1554087
2025-09-10 18:53:44,1554205
2025-09-10 18:53:44,1554388
2025-09-10 18:53:44,1554543
2025-09-10 18:53:44,1554664
2025-09-10 18:53:44,1554905
2025-09-10 18:53:44,1554969
2025-09-10 18:53:44,1555058
2025-09-10 18:53:44,1555040
2025-09-10 18:53:44,1554722
2025-09-10 18:53:44,1553916
2025-09-10 18:53:44,1552840
2025-09-10 18:53:44,1551652
2025-09-10 18:53:44,1550628
2025-09-10 18:53:44,1549731
2025-09-10 18:53:44,1548980
2025-09-10 18:53:44,1548304
2025-09-10 18:53:44,1547680
2025-09-10 18:53:44,1547199
2025-09-10 18:53:44,1546900
2025-09-10 18:53:44,1546550
2025-09-10 18:53:44,1546438
2025-09-10 18:53:44,1546238
2025-09-10 18:53:44,1546145
2025-09-10 18:53:44,1546170
2025-09-10 18:53:44,1546195
2025-09-10 18:53:44,1546266
2025-09-10 18:53:44,1546413
2025-09-10 18:53:44,1546466
2025-09-10 18:53:44,1546567
2025-09-10 18:53:44,1546795
2025-09-10 18:53:44,1547014
2025-09-10 18:53:44,1547034
2025-09-10 18:53:44,1547286
2025-09-10 18:53:44,1547489
2025-09-10 18:53:44,1547684
2025-09-10 18:53:44,1547966
2025-09-10 18:53:44,1548246
2025-09-10 18:53:44,1548479
2025-09-10 18:53:44,1548672
2025-09-10 18:53:44,1548868
2025-09-10 18:53:44,1549013
2025-09-10 18:53:44,1549128
2025-09-10 18:53:44,1549219
2025-09-10 18:53:44,1549214
2025-09-10 18:53:44,1549161
2025-09-10 18:53:44,1549131
2025-09-10 18:53:44,1549158
2025-09-10 18:53:44,1549087
2025-09-10 18:53:44,1549156
2025-09-10 18:53:45,1549140
2025-09-10 18:53:45,1549140
2025-09-10 18:53:45,1549114
2025-09-10 18:53:45,1549214
2025-09-10 18:53:45,1549271
2025-09-10 18:53:45,1549390
2025-09-10 18:53:45,1549425
2025-09-10 18:53:45,1549592
2025-09-10 18:53:45,1549697
2025-09-10 18:53:45,1549815
2025-09-10 18:53:45,1550003
2025-09-10 18:53:45,1550223
2025-09-10 18:53:45,1550293
2025-09-10 18:53:45,1550479
2025-09-10 18:53:45,1550656
2025-09-10 18:53:45,1550803
2025-09-10 18:53:45,1550969
2025-09-10 18:53:45,1551073
2025-09-10 18:53:45,1551295
2025-09-10 18:53:45,1551459
2025-09-10 18:53:45,1551589
2025-09-10 18:53:45,1551784
2025-09-10 18:53:45,1551982
2025-09-10 18:53:45,1552142
2025-09-10 18:53:45,1552198
2025-09-10 18:53:45,1552420
2025-09-10 18:53:45,1552550
2025-09-10 18:53:45,1552756
2025-09-10 18:53:45,1552800
2025-09-10 18:53:45,1552981
2025-09-10 18:53:45,1553101
2025-09-10 18:53:45,1553265
2025-09-10 18:53:45,1553403
2025-09-10 18:53:45,1553552
2025-09-10 18:53:45,1553626
2025-09-10 18:53:45,1553809
2025-09-10 18:53:45,1554025
2025-09-10 18:53:45,1554098
2025-09-10 18:53:45,1554254
2025-09-10 18:53:45,1554392
2025-09-10 18:53:45,1554437
2025-09-10 18:53:45,1554207
2025-09-10 18:53:45,1553463
2025-09-10 18:53:45,1552497
2025-09-10 18:53:45,1551367
2025-09-10 18:53:45,1550332
2025-09-10 18:53:45,1549495
2025-09-10 18:53:45,1548716
2025-09-10 18:53:45,1548147
2025-09-10 18:53:45,1547524
2025-09-10 18:53:45,1547089
2025-09-10 18:53:45,1546650
2025-09-10 18:53:45,1546392
2025-09-10 18:53:45,1546214
2025-09-10 18:53:45,1546067
2025-09-10 18:53:45,1546006
2025-09-10 18:53:45,1545989
2025-09-10 18:53:45,1546090
2025-09-10 18:53:45,1546178
2025-09-10 18:53:45,1546328
2025-09-10 18:53:45,1546553
2025-09-10 18:53:45,1546606
2025-09-10 18:53:45,1546888
2025-09-10 18:53:45,1547050
2025-09-10 18:53:45,1547208
2025-09-10 18:53:45,1547431
2025-09-10 18:53:45,1547670
2025-09-10 18:53:45,1547863
2025-09-10 18:53:45,1548159
2025-09-10 18:53:45,1548473
2025-09-10 18:53:45,1548696
2025-09-10 18:53:45,1548923
2025-09-10 18:53:45,1549089
2025-09-10 18:53:45,1549161
2025-09-10 18:53:45,1549257
2025-09-10 18:53:45,1549237
2025-09-10 18:53:45,1549220
2025-09-10 18:53:45,1549262
2025-09-10 18:53:45,1549135
2025-09-10 18:53:45,1549148
2025-09-10 18:53:45,1549049
2025-09-10 18:53:45,1549071
2025-09-10 18:53:45,1549086
2025-09-10 18:53:45,1549076
2025-09-10 18:53:45,1549048
2025-09-10 18:53:45,1549037
2025-09-10 18:53:45,1549176
2025-09-10 18:53:45,1549188
2025-09-10 18:53:45,1549410
2025-09-10 18:53:45,1549544
2025-09-10 18:53:45,1549633
2025-09-10 18:53:45,1549797
2025-09-10 18:53:45,1549928
2025-09-10 18:53:45,1550136
2025-09-10 18:53:45,1550280
2025-09-10 18:53:45,1550333
2025-09-10 18:53:45,1550579
2025-09-10 18:53:45,1550703
2025-09-10 18:53:45,1550790
2025-09-10 18:53:45,1550993
2025-09-10 18:53:45,1551139
2025-09-10 18:53:46,1551373
2025-09-10 18:53:46,1551509
2025-09-10 18:53:46,1551565
2025-09-10 18:53:46,1551633
2025-09-10 18:53:46,1551910
2025-09-10 18:53:46,1551921
2025-09-10 18:53:46,1552102
2025-09-10 18:53:46,1552241
2025-09-10 18:53:46,1552457
2025-09-10 18:53:46,1552540
2025-09-10 18:53:46,1552773
2025-09-10 18:53:46,1552935
2025-09-10 18:53:46,1553026
2025-09-10 18:53:46,1553211
2025-09-10 18:53:46,1553159
2025-09-10 18:53:46,1553046
2025-09-10 18:53:46,1552446
2025-09-10 18:53:46,1551505
2025-09-10 18:53:46,1550431
2025-09-10 18:53:46,1549436
2025-09-10 18:53:46,1548525
2025-09-10 18:53:46,1547688
2025-09-10 18:53:46,1546989
2025-09-10 18:53:46,1546430
2025-09-10 18:53:46,1545868
2025-09-10 18:53:46,1545513
2025-09-10 18:53:46,1545137
2025-09-10 18:53:46,1544892
2025-09-10 18:53:46,1544740
2025-09-10 18:53:46,1544643
2025-09-10 18:53:46,1544617
2025-09-10 18:53:46,1544649
2025-09-10 18:53:46,1544644
2025-09-10 18:53:46,1544735
2025-09-10 18:53:46,1544718
2025-09-10 18:53:46,1544790
2025-09-10 18:53:46,1544881
2025-09-10 18:53:46,1545003
2025-09-10 18:53:46,1545164
2025-09-10 18:53:46,1545171
2025-09-10 18:53:46,1545418
2025-09-10 18:53:46,1545605
2025-09-10 18:53:46,1545756
2025-09-10 18:53:46,1546044
2025-09-10 18:53:46,1546308
2025-09-10 18:53:46,1546546
2025-09-10 18:53:46,1546753
2025-09-10 18:53:46,1546897
2025-09-10 18:53:46,1547036
2025-09-10 18:53:46,1547068
2025-09-10 18:53:46,1547163
2025-09-10 18:53:46,1547261
2025-09-10 18:53:46,1547278
2025-09-10 18:53:46,1547216
2025-09-10 18:53:46,1547259
2025-09-10 18:53:46,1547244
2025-09-10 18:53:46,1547211
2025-09-10 18:53:46,1547263
2025-09-10 18:53:46,1547274
2025-09-10 18:53:46,1547317
2025-09-10 18:53:46,1547413
2025-09-10 18:53:46,1547438
2025-09-10 18:53:46,1547587
2025-09-10 18:53:46,1547638
2025-09-10 18:53:46,1547790
2025-09-10 18:53:46,1547893
2025-09-10 18:53:46,1548049
2025-09-10 18:53:46,1548108
2025-09-10 18:53:46,1548347
2025-09-10 18:53:46,1548451
2025-09-10 18:53:46,1548682
2025-09-10 18:53:46,1548794
2025-09-10 18:53:46,1549014
2025-09-10 18:53:46,1549113
2025-09-10 18:53:46,1549275
2025-09-10 18:53:46,1549499
2025-09-10 18:53:46,1549552
2025-09-10 18:53:46,1549755
2025-09-10 18:53:46,1549858
2025-09-10 18:53:46,1550086
2025-09-10 18:53:46,1550202
2025-09-10 18:53:46,1550387
2025-09-10 18:53:46,1550540
2025-09-10 18:53:46,1550636
2025-09-10 18:53:46,1550794
2025-09-10 18:53:46,1550882
2025-09-10 18:53:46,1551111
2025-09-10 18:53:46,1551235
2025-09-10 18:53:46,1551371
2025-09-10 18:53:46,1551551
2025-09-10 18:53:46,1551643
2025-09-10 18:53:46,1551772
2025-09-10 18:53:46,1551984
2025-09-10 18:53:46,1552099
2025-09-10 18:53:46,1552155
2025-09-10 18:53:46,1552069
2025-09-10 18:53:46,1551535
2025-09-10 18:53:46,1550619
2025-09-10 18:53:46,1549445
2025-09-10 18:53:47,1548363
2025-09-10 18:53:47,1547406
2025-09-10 18:53:47,1546583
2025-09-10 18:53:47,1545804
2025-09-10 18:53:47,1545174
2025-09-10 18:53:47,1544714
2025-09-10 18:53:47,1544189
2025-09-10 18:53:47,1543821
2025-09-10 18:53:47,1543607
2025-09-10 18:53:47,1543361
2025-09-10 18:53:47,1543307
2025-09-10 18:53:47,1543240
2025-09-10 18:53:47,1543258
2025-09-10 18:53:47,1543291
2025-09-10 18:53:47,1543267
2025-09-10 18:53:47,1543295
2025-09-10 18:53:47,1543504
2025-09-10 18:53:47,1543488
2025-09-10 18:53:47,1543532
2025-09-10 18:53:47,1543589
2025-09-10 18:53:47,1543738
2025-09-10 18:53:47,1543830
2025-09-10 18:53:47,1544084
2025-09-10 18:53:47,1544223
2025-09-10 18:53:47,1544459
2025-09-10 18:53:47,1544677
2025-09-10 18:53:47,1544912
2025-09-10 18:53:47,1545079
2025-09-10 18:53:47,1545187
2025-09-10 18:53:47,1545380
2025-09-10 18:53:47,1545420
2025-09-10 18:53:47,1545614
2025-09-10 18:53:47,1545618
2025-09-10 18:53:47,1545545
2025-09-10 18:53:47,1545621
2025-09-10 18:53:47,1545616
2025-09-10 18:53:47,1545571
2025-09-10 18:53:47,1545592
2025-09-10 18:53:47,1545598
2025-09-10 18:53:47,1545638
2025-09-10 18:53:47,1545570
2025-09-10 18:53:47,1545717
2025-09-10 18:53:47,1545842
2025-09-10 18:53:47,1545831
2025-09-10 18:53:47,1545927
2025-09-10 18:53:47,1546011
2025-09-10 18:53:47,1546101
2025-09-10 18:53:47,1546223
2025-09-10 18:53:47,1546377
2025-09-10 18:53:47,1546559
2025-09-10 18:53:47,1546720
2025-09-10 18:53:47,1546824
2025-09-10 18:53:47,1547045
2025-09-10 18:53:47,1547169
2025-09-10 18:53:47,1547344
2025-09-10 18:53:47,1547494
2025-09-10 18:53:47,1547662
2025-09-10 18:53:47,1547813
2025-09-10 18:53:47,1547972
2025-09-10 18:53:47,1548117
2025-09-10 18:53:47,1548267
2025-09-10 18:53:47,1548490
2025-09-10 18:53:47,1548543
2025-09-10 18:53:47,1548759
2025-09-10 18:53:47,1548762
2025-09-10 18:53:47,1549014
2025-09-10 18:53:47,1549163
2025-09-10 18:53:47,1549204
2025-09-10 18:53:47,1549413
2025-09-10 18:53:47,1549582
2025-09-10 18:53:47,1549669
2025-09-10 18:53:47,1549755
2025-09-10 18:53:47,1549951
2025-09-10 18:53:47,1550087
2025-09-10 18:53:47,1550300
2025-09-10 18:53:47,1550448
2025-09-10 18:53:47,1550591
2025-09-10 18:53:47,1550658
2025-09-10 18:53:47,1550671
2025-09-10 18:53:47,1550415
2025-09-10 18:53:47,1549573
2025-09-10 18:53:47,1548590
2025-09-10 18:53:47,1547451
2025-09-10 18:53:47,1546441
2025-09-10 18:53:47,1545540
2025-09-10 18:53:47,1544827
2025-09-10 18:53:47,1544106
2025-09-10 18:53:47,1543442
2025-09-10 18:53:47,1542858
2025-09-10 18:53:47,1542506
2025-09-10 18:53:47,1542245
2025-09-10 18:53:47,1542078
2025-09-10 18:53:47,1541985
2025-09-10 18:53:47,1541862
2025-09-10 18:53:47,1541859
2025-09-10 18:53:47,1541839
2025-09-10 18:53:47,1541939
2025-09-10 18:53:47,1542018
2025-09-10 18:53:47,1541935
2025-09-10 18:53:47,1542075
2025-09-10 18:53:47,1542166
2025-09-10 18:53:48,1542269
2025-09-10 18:53:48,1542451
2025-09-10 18:53:48,1542541
2025-09-10 18:53:48,1542693
2025-09-10 18:53:48,1542887
2025-09-10 18:53:48,1543125
2025-09-10 18:53:48,1543327
2025-09-10 18:53:48,1543599
2025-09-10 18:53:48,1543780
2025-09-10 18:53:48,1544007
2025-09-10 18:53:48,1544017
2025-09-10 18:53:48,1544111
2025-09-10 18:53:48,1544192
2025-09-10 18:53:48,1544280
2025-09-10 18:53:48,1544305
2025-09-10 18:53:48,1544265
2025-09-10 18:53:48,1544200
2025-09-10 18:53:48,1544200
2025-09-10 18:53:48,1544205
2025-09-10 18:53:48,1544287
2025-09-10 18:53:48,1544221
2025-09-10 18:53:48,1544286
2025-09-10 18:53:48,1544391
2025-09-10 18:53:48,1544390
2025-09-10 18:53:48,1544461
2025-09-10 18:53:48,1544588
2025-09-10 18:53:48,1544662
2025-09-10 18:53:48,1544825
2025-09-10 18:53:48,1544932
2025-09-10 18:53:48,1545031
2025-09-10 18:53:48,1545202
2025-09-10 18:53:48,1545374
2025-09-10 18:53:48,1545473
2025-09-10 18:53:48,1545741
2025-09-10 18:53:48,1545820
2025-09-10 18:53:48,1545959
2025-09-10 18:53:48,1546160
2025-09-10 18:53:48,1546294
2025-09-10 18:53:48,1546517
2025-09-10 18:53:48,1546674
2025-09-10 18:53:48,1546823
2025-09-10 18:53:48,1546967
2025-09-10 18:53:48,1547153
2025-09-10 18:53:48,1547325
2025-09-10 18:53:48,1547404
2025-09-10 18:53:48,1547657
2025-09-10 18:53:48,1547748
2025-09-10 18:53:48,1547919
2025-09-10 18:53:48,1548006
2025-09-10 18:53:48,1548235
2025-09-10 18:53:48,1548324
2025-09-10 18:53:48,1548493
2025-09-10 18:53:48,1548630
2025-09-10 18:53:48,1548737
2025-09-10 18:53:48,1548879
2025-09-10 18:53:48,1549030
2025-09-10 18:53:48,1549284
2025-09-10 18:53:48,1549338
2025-09-10 18:53:48,1549574
2025-09-10 18:53:48,1549687
2025-09-10 18:53:48,1549856
2025-09-10 18:53:48,1549842
2025-09-10 18:53:48,1549731
2025-09-10 18:53:48,1549196
2025-09-10 18:53:48,1548199
2025-09-10 18:53:48,1547052
2025-09-10 18:53:48,1545927
2025-09-10 18:53:48,1544936
2025-09-10 18:53:48,1544138
2025-09-10 18:53:48,1543429
2025-09-10 18:53:48,1542785
2025-09-10 18:53:48,1542243
2025-09-10 18:53:48,1541810
2025-09-10 18:53:48,1541457
2025-09-10 18:53:48,1541241
2025-09-10 18:53:48,1541128
2025-09-10 18:53:48,1541065
2025-09-10 18:53:48,1541024
2025-09-10 18:53:48,1541156
2025-09-10 18:53:48,1541111
2025-09-10 18:53:48,1541160
2025-09-10 18:53:48,1541244
2025-09-10 18:53:48,1541380
2025-09-10 18:53:48,1541492
2025-09-10 18:53:48,1541672
2025-09-10 18:53:48,1541734
2025-09-10 18:53:48,1541989
2025-09-10 18:53:48,1542148
2025-09-10 18:53:48,1542373
2025-09-10 18:53:48,1542692
2025-09-10 18:53:48,1542814
2025-09-10 18:53:48,1543099
2025-09-10 18:53:48,1543278
2025-09-10 18:53:48,1543456
2025-09-10 18:53:48,1543540
2025-09-10 18:53:48,1543625
2025-09-10 18:53:48,1543686
2025-09-10 18:53:48,1543751
2025-09-10 18:53:48,1543733
2025-09-10 18:53:48,1543716
2025-09-10 18:53:49,1543599
2025-09-10 18:53:49,1543598
2025-09-10 18:53:49,1543608
2025-09-10 18:53:49,1543567
2025-09-10 18:53:49,1543605
2025-09-10 18:53:49,1543542
2025-09-10 18:53:49,1543573
2025-09-10 18:53:49,1543680
2025-09-10 18:53:49,1543735
2025-09-10 18:53:49,1543838
2025-09-10 18:53:49,1543916
2025-09-10 18:53:49,1544009
2025-09-10 18:53:49,1544184
2025-09-10 18:53:49,1544291
2025-09-10 18:53:49,1544478
2025-09-10 18:53:49,1544689
2025-09-10 18:53:49,1544833
2025-09-10 18:53:49,1544952
2025-09-10 18:53:49,1545082
2025-09-10 18:53:49,1545267
2025-09-10 18:53:49,1545497
2025-09-10 18:53:49,1545576
2025-09-10 18:53:49,1545702
2025-09-10 18:53:49,1545838
2025-09-10 18:53:49,1545998
2025-09-10 18:53:49,1546182
2025-09-10 18:53:49,1546188
2025-09-10 18:53:49,1546390
2025-09-10 18:53:49,1546510
2025-09-10 18:53:49,1546676
2025-09-10 18:53:49,1546793
2025-09-10 18:53:49,1546896
2025-09-10 18:53:49,1547012
2025-09-10 18:53:49,1547255
2025-09-10 18:53:49,1547385
2025-09-10 18:53:49,1547619
2025-09-10 18:53:49,1547654
2025-09-10 18:53:49,1547810
2025-09-10 18:53:49,1547907
2025-09-10 18:53:49,1547589
2025-09-10 18:53:49,1546970
2025-09-10 18:53:49,1545924
2025-09-10 18:53:49,1544853
2025-09-10 18:53:49,1543878
2025-09-10 18:53:49,1543027
2025-09-10 18:53:49,1542189
2025-09-10 18:53:49,1541588
2025-09-10 18:53:49,1540996
2025-09-10 18:53:49,1540516
2025-09-10 18:53:49,1540145
2025-09-10 18:53:49,1539829
2025-09-10 18:53:49,1539693
2025-09-10 18:53:49,1539611
2025-09-10 18:53:49,1539423
2025-09-10 18:53:49,1539481
2025-09-10 18:53:49,1539435
2025-09-10 18:53:49,1539434
2025-09-10 18:53:49,1539545
2025-09-10 18:53:49,1539663
2025-09-10 18:53:49,1539716
2025-09-10 18:53:49,1539786
2025-09-10 18:53:49,1539942
2025-09-10 18:53:49,1540017
2025-09-10 18:53:49,1540094
2025-09-10 18:53:49,1540296
2025-09-10 18:53:49,1540594
2025-09-10 18:53:49,1540776
2025-09-10 18:53:49,1541010
2025-09-10 18:53:49,1541236
2025-09-10 18:53:49,1541387
2025-09-10 18:53:49,1541487
2025-09-10 18:53:49,1541599
2025-09-10 18:53:49,1541695
2025-09-10 18:53:49,1541695
2025-09-10 18:53:49,1541719
2025-09-10 18:53:49,1541724
2025-09-10 18:53:49,1541733
2025-09-10 18:53:49,1541712
2025-09-10 18:53:49,1541649
2025-09-10 18:53:49,1541560
2025-09-10 18:53:49,1541575
2025-09-10 18:53:49,1541709
2025-09-10 18:53:49,1541767
2025-09-10 18:53:49,1541802
2025-09-10 18:53:49,1541871
2025-09-10 18:53:49,1541911
2025-09-10 18:53:49,1542018
2025-09-10 18:53:49,1542141
2025-09-10 18:53:49,1542205
2025-09-10 18:53:49,1542410
2025-09-10 18:53:49,1542641
2025-09-10 18:53:49,1542719
2025-09-10 18:53:49,1542881
2025-09-10 18:53:49,1543065
2025-09-10 18:53:49,1543133
2025-09-10 18:53:49,1543255
2025-09-10 18:53:49,1543518
2025-09-10 18:53:49,1543623
2025-09-10 18:53:49,1543751
2025-09-10 18:53:49,1543933
2025-09-10 18:53:50,1544092
2025-09-10 18:53:50,1544224
2025-09-10 18:53:50,1544359
2025-09-10 18:53:50,1544487
2025-09-10 18:53:50,1544674
2025-09-10 18:53:50,1544840
2025-09-10 18:53:50,1544941
2025-09-10 18:53:50,1545182
2025-09-10 18:53:50,1545252
2025-09-10 18:53:50,1545473
2025-09-10 18:53:50,1545672
2025-09-10 18:53:50,1545767
2025-09-10 18:53:50,1545969
2025-09-10 18:53:50,1545847
2025-09-10 18:53:50,1545558
2025-09-10 18:53:50,1544810
2025-09-10 18:53:50,1543767
2025-09-10 18:53:50,1542698
2025-09-10 18:53:50,1541771
2025-09-10 18:53:50,1540871
2025-09-10 18:53:50,1540098
2025-09-10 18:53:50,1539322
2025-09-10 18:53:50,1538766
2025-09-10 18:53:50,1538181
2025-09-10 18:53:50,1537915
2025-09-10 18:53:50,1537614
2025-09-10 18:53:50,1537375
2025-09-10 18:53:50,1537266
2025-09-10 18:53:50,1537112
2025-09-10 18:53:50,1537061
2025-09-10 18:53:50,1537019
2025-09-10 18:53:50,1537002
2025-09-10 18:53:50,1536981
2025-09-10 18:53:50,1537108
2025-09-10 18:53:50,1537017
2025-09-10 18:53:50,1537122
2025-09-10 18:53:50,1537153
2025-09-10 18:53:50,1537233
2025-09-10 18:53:50,1537313
2025-09-10 18:53:50,1537386
2025-09-10 18:53:50,1537550
2025-09-10 18:53:50,1537743
2025-09-10 18:53:50,1537995
2025-09-10 18:53:50,1538212
2025-09-10 18:53:50,1538368
2025-09-10 18:53:50,1538537
2025-09-10 18:53:50,1538709
2025-09-10 18:53:50,1538909
2025-09-10 18:53:50,1539063
2025-09-10 18:53:50,1539042
2025-09-10 18:53:50,1539060
2025-09-10 18:53:50,1539175
2025-09-10 18:53:50,1539120
2025-09-10 18:53:50,1539153
2025-09-10 18:53:50,1539087
2025-09-10 18:53:50,1539149
2025-09-10 18:53:50,1539142
2025-09-10 18:53:50,1539154
2025-09-10 18:53:50,1539215
2025-09-10 18:53:50,1539242
2025-09-10 18:53:50,1539395
2025-09-10 18:53:50,1539417
2025-09-10 18:53:50,1539633
2025-09-10 18:53:50,1539735
2025-09-10 18:53:50,1539792
2025-09-10 18:53:50,1540001
2025-09-10 18:53:50,1540158
2025-09-10 18:53:50,1540330
2025-09-10 18:53:50,1540560
2025-09-10 18:53:50,1540656
2025-09-10 18:53:50,1540828
2025-09-10 18:53:50,1540985
2025-09-10 18:53:50,1541256
2025-09-10 18:53:50,1541372
2025-09-10 18:53:50,1541465
2025-09-10 18:53:50,1541721
2025-09-10 18:53:50,1541940
2025-09-10 18:53:50,1542042
2025-09-10 18:53:50,1542206
2025-09-10 18:53:50,1542449
2025-09-10 18:53:50,1542628
2025-09-10 18:53:50,1542728
2025-09-10 18:53:50,1542919
2025-09-10 18:53:50,1543136
2025-09-10 18:53:50,1543271
2025-09-10 18:53:50,1543424
2025-09-10 18:53:50,1543656
2025-09-10 18:53:50,1543674
2025-09-10 18:53:50,1543928
2025-09-10 18:53:50,1544080
2025-09-10 18:53:50,1544263
2025-09-10 18:53:50,1544466
2025-09-10 18:53:50,1544499
2025-09-10 18:53:50,1544856
2025-09-10 18:53:50,1544867
2025-09-10 18:53:50,1545071
2025-09-10 18:53:50,1544907
2025-09-10 18:53:50,1544569
2025-09-10 18:53:50,1543684
2025-09-10 18:53:50,1542514
2025-09-10 18:53:51,1541290
2025-09-10 18:53:51,1540331
2025-09-10 18:53:51,1539396
2025-09-10 18:53:51,1538613
2025-09-10 18:53:51,1537786
2025-09-10 18:53:51,1537220
2025-09-10 18:53:51,1536784
2025-09-10 18:53:51,1536271
2025-09-10 18:53:51,1536156
2025-09-10 18:53:51,1535964
2025-09-10 18:53:51,1535778
2025-09-10 18:53:51,1535760
2025-09-10 18:53:51,1535744
2025-09-10 18:53:51,1535819
2025-09-10 18:53:51,1535743
2025-09-10 18:53:51,1535811
2025-09-10 18:53:51,1535824
2025-09-10 18:53:51,1535981
2025-09-10 18:53:51,1535953
2025-09-10 18:53:51,1536111
2025-09-10 18:53:51,1536167
2025-09-10 18:53:51,1536314
2025-09-10 18:53:51,1536522
2025-09-10 18:53:51,1536671
2025-09-10 18:53:51,1536893
2025-09-10 18:53:51,1537122
2025-09-10 18:53:51,1537361
2025-09-10 18:53:51,1537578
2025-09-10 18:53:51,1537671
2025-09-10 18:53:51,1537863
2025-09-10 18:53:51,1538002
2025-09-10 18:53:51,1538103
2025-09-10 18:53:51,1538156
2025-09-10 18:53:51,1538210
2025-09-10 18:53:51,1538248
2025-09-10 18:53:51,1538247
2025-09-10 18:53:51,1538204
2025-09-10 18:53:51,1538178
2025-09-10 18:53:51,1538189
2025-09-10 18:53:51,1538277
2025-09-10 18:53:51,1538361
2025-09-10 18:53:51,1538371
2025-09-10 18:53:51,1538509
2025-09-10 18:53:51,1538580
2025-09-10 18:53:51,1538611
2025-09-10 18:53:51,1538770
2025-09-10 18:53:51,1538864
2025-09-10 18:53:51,1539066
2025-09-10 18:53:51,1539261
2025-09-10 18:53:51,1539432
2025-09-10 18:53:51,1539571
2025-09-10 18:53:51,1539686
2025-09-10 18:53:51,1539879
2025-09-10 18:53:51,1540140
2025-09-10 18:53:51,1540281
2025-09-10 18:53:51,1540552
2025-09-10 18:53:51,1540631
2025-09-10 18:53:51,1540812
2025-09-10 18:53:51,1540971
2025-09-10 18:53:51,1541259
2025-09-10 18:53:51,1541252
2025-09-10 18:53:51,1541562
2025-09-10 18:53:51,1541771
2025-09-10 18:53:51,1541971
2025-09-10 18:53:51,1542065
2025-09-10 18:53:51,1542342
2025-09-10 18:53:51,1542446
2025-09-10 18:53:51,1542646
2025-09-10 18:53:51,1542763
2025-09-10 18:53:51,1543033
2025-09-10 18:53:51,1543110
2025-09-10 18:53:51,1543258
2025-09-10 18:53:51,1543420
2025-09-10 18:53:51,1543588
2025-09-10 18:53:51,1543777
2025-09-10 18:53:51,1543952
2025-09-10 18:53:51,1544137
2025-09-10 18:53:51,1544381
2025-09-10 18:53:51,1544545
2025-09-10 18:53:51,1544632
2025-09-10 18:53:51,1544715
2025-09-10 18:53:51,1544589
2025-09-10 18:53:51,1544117
2025-09-10 18:53:51,1543049
2025-09-10 18:53:51,1541833
2025-09-10 18:53:51,1540718
2025-09-10 18:53:51,1539794
2025-09-10 18:53:51,1538906
2025-09-10 18:53:51,1537984
2025-09-10 18:53:51,1537387
2025-09-10 18:53:51,1536864
2025-09-10 18:53:51,1536444
2025-09-10 18:53:51,1536158
2025-09-10 18:53:51,1535821
2025-09-10 18:53:51,1535753
2025-09-10 18:53:51,1535608
2025-09-10 18:53:51,1535616
2025-09-10 18:53:51,1535645
2025-09-10 18:53:51,1535731
2025-09-10 18:53:51,1535890
2025-09-10 18:53:52,1535896
2025-09-10 18:53:52,1536041
2025-09-10 18:53:52,1536114
2025-09-10 18:53:52,1536367
2025-09-10 18:53:52,1536414
2025-09-10 18:53:52,1536664
2025-09-10 18:53:52,1536852
2025-09-10 18:53:52,1537096
2025-09-10 18:53:52,1537336
2025-09-10 18:53:52,1537648
2025-09-10 18:53:52,1537847
2025-09-10 18:53:52,1538139
2025-09-10 18:53:52,1538198
2025-09-10 18:53:52,1538369
2025-09-10 18:53:52,1538446
2025-09-10 18:53:52,1538510
2025-09-10 18:53:52,1538521
2025-09-10 18:53:52,1538508
2025-09-10 18:53:52,1538576
2025-09-10 18:53:52,1538517
2025-09-10 18:53:52,1538530
2025-09-10 18:53:52,1538442
2025-09-10 18:53:52,1538460
2025-09-10 18:53:52,1538515
2025-09-10 18:53:52,1538585
2025-09-10 18:53:52,1538534
2025-09-10 18:53:52,1538552
2025-09-10 18:53:52,1538695
2025-09-10 18:53:52,1538772
2025-09-10 18:53:52,1538856
2025-09-10 18:53:52,1539068
2025-09-10 18:53:52,1539114
2025-09-10 18:53:52,1539271
2025-09-10 18:53:52,1539521
2025-09-10 18:53:52,1539704
2025-09-10 18:53:52,1539842
2025-09-10 18:53:52,1539890
2025-09-10 18:53:52,1540125
2025-09-10 18:53:52,1540258
2025-09-10 18:53:52,1540495
2025-09-10 18:53:52,1540593
2025-09-10 18:53:52,1540736
2025-09-10 18:53:52,1540932
2025-09-10 18:53:52,1541065
2025-09-10 18:53:52,1541167
2025-09-10 18:53:52,1541356
2025-09-10 18:53:52,1541493
2025-09-10 18:53:52,1541644
2025-09-10 18:53:52,1541711
2025-09-10 18:53:52,1541960
2025-09-10 18:53:52,1542113
2025-09-10 18:53:52,1542267
2025-09-10 18:53:52,1542473
2025-09-10 18:53:52,1542649
2025-09-10 18:53:52,1542809
2025-09-10 18:53:52,1543057
2025-09-10 18:53:52,1543180
2025-09-10 18:53:52,1543281
2025-09-10 18:53:52,1543090
2025-09-10 18:53:52,1542748
2025-09-10 18:53:52,1541896
2025-09-10 18:53:52,1540727
2025-09-10 18:53:52,1539644
2025-09-10 18:53:52,1538695
2025-09-10 18:53:52,1537735
2025-09-10 18:53:52,1536969
2025-09-10 18:53:52,1536301
2025-09-10 18:53:52,1535704
2025-09-10 18:53:52,1535269
2025-09-10 18:53:52,1534909
2025-09-10 18:53:52,1534619
2025-09-10 18:53:52,1534433
2025-09-10 18:53:52,1534379
2025-09-10 18:53:52,1534311
2025-09-10 18:53:52,1534319
2025-09-10 18:53:52,1534273
2025-09-10 18:53:52,1534329
2025-09-10 18:53:52,1534359
2025-09-10 18:53:52,1534363
2025-09-10 18:53:52,1534565
2025-09-10 18:53:52,1534596
2025-09-10 18:53:52,1534689
2025-09-10 18:53:52,1534805
2025-09-10 18:53:52,1534940
2025-09-10 18:53:52,1535108
2025-09-10 18:53:52,1535235
2025-09-10 18:53:52,1535572
2025-09-10 18:53:52,1535704
2025-09-10 18:53:52,1535923
2025-09-10 18:53:52,1536159
2025-09-10 18:53:52,1536463
2025-09-10 18:53:52,1536542
2025-09-10 18:53:52,1536715
2025-09-10 18:53:52,1536721
2025-09-10 18:53:52,1536820
2025-09-10 18:53:52,1536961
2025-09-10 18:53:52,1536823
2025-09-10 18:53:52,1536828
2025-09-10 18:53:52,1536836
2025-09-10 18:53:52,1536799
2025-09-10 18:53:53,1536877
2025-09-10 18:53:53,1536923
2025-09-10 18:53:53,1536947
2025-09-10 18:53:53,1537053
2025-09-10 18:53:53,1537125
2025-09-10 18:53:53,1537203
2025-09-10 18:53:53,1537332
2025-09-10 18:53:53,1537472
2025-09-10 18:53:53,1537513
2025-09-10 18:53:53,1537737
2025-09-10 18:53:53,1537942
2025-09-10 18:53:53,1538068
2025-09-10 18:53:53,1538301
2025-09-10 18:53:53,1538497
2025-09-10 18:53:53,1538645
2025-09-10 18:53:53,1538835
2025-09-10 18:53:53,1538920
2025-09-10 18:53:53,1539107
2025-09-10 18:53:53,1539426
2025-09-10 18:53:53,1539602
2025-09-10 18:53:53,1539799
2025-09-10 18:53:53,1539959
2025-09-10 18:53:53,1540126
2025-09-10 18:53:53,1540292
2025-09-10 18:53:53,1540597
2025-09-10 18:53:53,1540689
2025-09-10 18:53:53,1540818
2025-09-10 18:53:53,1541003
2025-09-10 18:53:53,1541254
2025-09-10 18:53:53,1541411
2025-09-10 18:53:53,1541552
2025-09-10 18:53:53,1541758
2025-09-10 18:53:53,1541956
2025-09-10 18:53:53,1542170
2025-09-10 18:53:53,1542277
2025-09-10 18:53:53,1542486
2025-09-10 18:53:53,1542747
2025-09-10 18:53:53,1542807
2025-09-10 18:53:53,1542957
2025-09-10 18:53:53,1543004
2025-09-10 18:53:53,1542566
2025-09-10 18:53:53,1541602
2025-09-10 18:53:53,1540451
2025-09-10 18:53:53,1539234
2025-09-10 18:53:53,1538125
2025-09-10 18:53:53,1537256
2025-09-10 18:53:53,1536356
2025-09-10 18:53:53,1535556
2025-09-10 18:53:53,1534990
2025-09-10 18:53:53,1534477
2025-09-10 18:53:53,1534082
2025-09-10 18:53:53,1533840
2025-09-10 18:53:53,1533629
2025-09-10 18:53:53,1533495
2025-09-10 18:53:53,1533385
2025-09-10 18:53:53,1533341
2025-09-10 18:53:53,1533325
2025-09-10 18:53:53,1533343
2025-09-10 18:53:53,1533441
2025-09-10 18:53:53,1533437
2025-09-10 18:53:53,1533528
2025-09-10 18:53:53,1533589
2025-09-10 18:53:53,1533666
2025-09-10 18:53:53,1533806
2025-09-10 18:53:53,1533878
2025-09-10 18:53:53,1533996
2025-09-10 18:53:53,1534253
2025-09-10 18:53:53,1534368
2025-09-10 18:53:53,1534599
2025-09-10 18:53:53,1534858
2025-09-10 18:53:53,1535074
2025-09-10 18:53:53,1535377
2025-09-10 18:53:53,1535532
2025-09-10 18:53:53,1535636
2025-09-10 18:53:53,1535816
2025-09-10 18:53:53,1535863
2025-09-10 18:53:53,1535997
2025-09-10 18:53:53,1535946
2025-09-10 18:53:53,1536023
2025-09-10 18:53:53,1536014
2025-09-10 18:53:53,1535978
2025-09-10 18:53:53,1536054
2025-09-10 18:53:53,1536128
2025-09-10 18:53:53,1536161
2025-09-10 18:53:53,1536214
2025-09-10 18:53:53,1536322
2025-09-10 18:53:53,1536437
2025-09-10 18:53:53,1536512
2025-09-10 18:53:53,1536708
2025-09-10 18:53:53,1536721
2025-09-10 18:53:53,1536924
2025-09-10 18:53:53,1537149
2025-09-10 18:53:53,1537296
2025-09-10 18:53:53,1537526
2025-09-10 18:53:53,1537672
2025-09-10 18:53:53,1537897
2025-09-10 18:53:53,1538067
2025-09-10 18:53:53,1538293
2025-09-10 18:53:53,1538553
2025-09-10 18:53:53,1538708
2025-09-10 18:53:53,1538953
2025-09-10 18:53:54,1539118
2025-09-10 18:53:54,1539267
2025-09-10 18:53:54,1539538
2025-09-10 18:53:54,1539704
2025-09-10 18:53:54,1539933
2025-09-10 18:53:54,1540107
2025-09-10 18:53:54,1540337
2025-09-10 18:53:54,1540420
2025-09-10 18:53:54,1540750
2025-09-10 18:53:54,1540919
2025-09-10 18:53:54,1541035
2025-09-10 18:53:54,1541199
2025-09-10 18:53:54,1541443
2025-09-10 18:53:54,1541687
2025-09-10 18:53:54,1541788
2025-09-10 18:53:54,1542031
2025-09-10 18:53:54,1542203
2025-09-10 18:53:54,1542431
2025-09-10 18:53:54,1542549
2025-09-10 18:53:54,1542508
2025-09-10 18:53:54,1542003
2025-09-10 18:53:54,1541114
2025-09-10 18:53:54,1539855
2025-09-10 18:53:54,1538642
2025-09-10 18:53:54,1537635
2025-09-10 18:53:54,1536750
2025-09-10 18:53:54,1535936
2025-09-10 18:53:54,1535209
2025-09-10 18:53:54,1534597
2025-09-10 18:53:54,1534236
2025-09-10 18:53:54,1533790
2025-09-10 18:53:54,1533530
2025-09-10 18:53:54,1533413
2025-09-10 18:53:54,1533335
2025-09-10 18:53:54,1533450
2025-09-10 18:53:54,1533389
2025-09-10 18:53:54,1533411
2025-09-10 18:53:54,1533474
2025-09-10 18:53:54,1533654
2025-09-10 18:53:54,1533707
2025-09-10 18:53:54,1533753
2025-09-10 18:53:54,1533962
2025-09-10 18:53:54,1534121
2025-09-10 18:53:54,1534322
2025-09-10 18:53:54,1534482
2025-09-10 18:53:54,1534699
2025-09-10 18:53:54,1534941
2025-09-10 18:53:54,1535230
2025-09-10 18:53:54,1535572
2025-09-10 18:53:54,1535761
2025-09-10 18:53:54,1535926
2025-09-10 18:53:54,1536113
2025-09-10 18:53:54,1536221
2025-09-10 18:53:54,1536409
2025-09-10 18:53:54,1536426
2025-09-10 18:53:54,1536546
2025-09-10 18:53:54,1536449
2025-09-10 18:53:54,1536605
2025-09-10 18:53:54,1536525
2025-09-10 18:53:54,1536440
2025-09-10 18:53:54,1536570
2025-09-10 18:53:54,1536531
2025-09-10 18:53:54,1536546
2025-09-10 18:53:54,1536589
2025-09-10 18:53:54,1536679
2025-09-10 18:53:54,1536761
2025-09-10 18:53:54,1536777
2025-09-10 18:53:54,1536963
2025-09-10 18:53:54,1537045
2025-09-10 18:53:54,1537221
2025-09-10 18:53:54,1537343
2025-09-10 18:53:54,1537478
2025-09-10 18:53:54,1537719
2025-09-10 18:53:54,1537941
2025-09-10 18:53:54,1538121
2025-09-10 18:53:54,1538184
2025-09-10 18:53:54,1538394
2025-09-10 18:53:54,1538575
2025-09-10 18:53:54,1538746
2025-09-10 18:53:54,1538863
2025-09-10 18:53:54,1539046
2025-09-10 18:53:54,1539225
2025-09-10 18:53:54,1539429
2025-09-10 18:53:54,1539585
2025-09-10 18:53:54,1539669
2025-09-10 18:53:54,1539845
2025-09-10 18:53:54,1540057
2025-09-10 18:53:54,1540199
2025-09-10 18:53:54,1540385
2025-09-10 18:53:54,1540577
2025-09-10 18:53:54,1540804
2025-09-10 18:53:54,1540931
2025-09-10 18:53:54,1541157
2025-09-10 18:53:54,1541421
2025-09-10 18:53:54,1541442
2025-09-10 18:53:54,1541539
2025-09-10 18:53:54,1541173
2025-09-10 18:53:54,1540510
2025-09-10 18:53:54,1539443
2025-09-10 18:53:54,1538317
2025-09-10 18:53:55,1537264
2025-09-10 18:53:55,1536300
2025-09-10 18:53:55,1535409
2025-09-10 18:53:55,1534699
2025-09-10 18:53:55,1534155
2025-09-10 18:53:55,1533554
2025-09-10 18:53:55,1533257
2025-09-10 18:53:55,1532904
2025-09-10 18:53:55,1532818
2025-09-10 18:53:55,1532713
2025-09-10 18:53:55,1532632
2025-09-10 18:53:55,1532692
2025-09-10 18:53:55,1532790
2025-09-10 18:53:55,1532843
2025-09-10 18:53:55,1532919
2025-09-10 18:53:55,1533046
2025-09-10 18:53:55,1533161
2025-09-10 18:53:55,1533209
2025-09-10 18:53:55,1533496
2025-09-10 18:53:55,1533539
2025-09-10 18:53:55,1533729
2025-09-10 18:53:55,1533986
2025-09-10 18:53:55,1534231
2025-09-10 18:53:55,1534574
2025-09-10 18:53:55,1534809
2025-09-10 18:53:55,1534954
2025-09-10 18:53:55,1535243
2025-09-10 18:53:55,1535392
2025-09-10 18:53:55,1535557
2025-09-10 18:53:55,1535561
2025-09-10 18:53:55,1535705
2025-09-10 18:53:55,1535670
2025-09-10 18:53:55,1535692
2025-09-10 18:53:55,1535732
2025-09-10 18:53:55,1535725
2025-09-10 18:53:55,1535742
2025-09-10 18:53:55,1535730
2025-09-10 18:53:55,1535722
2025-09-10 18:53:55,1535789
2025-09-10 18:53:55,1535877
2025-09-10 18:53:55,1535943
2025-09-10 18:53:55,1536011
2025-09-10 18:53:55,1536214
2025-09-10 18:53:55,1536201
2025-09-10 18:53:55,1536351
2025-09-10 18:53:55,1536520
2025-09-10 18:53:55,1536738
2025-09-10 18:53:55,1536877
2025-09-10 18:53:55,1537077
2025-09-10 18:53:55,1537274
2025-09-10 18:53:55,1537452
2025-09-10 18:53:55,1537622
2025-09-10 18:53:55,1537847
2025-09-10 18:53:55,1538011
2025-09-10 18:53:55,1538147
2025-09-10 18:53:55,1538382
2025-09-10 18:53:55,1538549
2025-09-10 18:53:55,1538676
2025-09-10 18:53:55,1538881
2025-09-10 18:53:55,1539053
2025-09-10 18:53:55,1539217
2025-09-10 18:53:55,1539471
2025-09-10 18:53:55,1539566
2025-09-10 18:53:55,1539774
2025-09-10 18:53:55,1539930
2025-09-10 18:53:55,1540097
2025-09-10 18:53:55,1540322
2025-09-10 18:53:55,1540496
2025-09-10 18:53:55,1540777
2025-09-10 18:53:55,1540915
2025-09-10 18:53:55,1540862
2025-09-10 18:53:55,1540773
2025-09-10 18:53:55,1540046
2025-09-10 18:53:55,1539022
2025-09-10 18:53:55,1537816
2025-09-10 18:53:55,1536727
2025-09-10 18:53:55,1535730
2025-09-10 18:53:55,1534831
2025-09-10 18:53:55,1533935
2025-09-10 18:53:55,1533304
2025-09-10 18:53:55,1532735
2025-09-10 18:53:55,1532219
2025-09-10 18:53:55,1531889
2025-09-10 18:53:55,1531712
2025-09-10 18:53:55,1531443
2025-09-10 18:53:55,1531443
2025-09-10 18:53:55,1531365
2025-09-10 18:53:55,1531368
2025-09-10 18:53:55,1531389
2025-09-10 18:53:55,1531472
2025-09-10 18:53:55,1531477
2025-09-10 18:53:55,1531495
2025-09-10 18:53:55,1531633
2025-09-10 18:53:55,1531658
2025-09-10 18:53:55,1531770
2025-09-10 18:53:55,1531825
2025-09-10 18:53:55,1532017
2025-09-10 18:53:55,1532119
2025-09-10 18:53:55,1532385
2025-09-10 18:53:55,1532617
2025-09-10 18:53:56,1532896
2025-09-10 18:53:56,1533014
2025-09-10 18:53:56,1533274
2025-09-10 18:53:56,1533440
2025-09-10 18:53:56,1533638
2025-09-10 18:53:56,1533727
2025-09-10 18:53:56,1533885
2025-09-10 18:53:56,1533862
2025-09-10 18:53:56,1534004
2025-09-10 18:53:56,1533959
2025-09-10 18:53:56,1533996
2025-09-10 18:53:56,1534029
2025-09-10 18:53:56,1534026
2025-09-10 18:53:56,1534036
2025-09-10 18:53:56,1534132
2025-09-10 18:53:56,1534176
2025-09-10 18:53:56,1534262
2025-09-10 18:53:56,1534415
2025-09-10 18:53:56,1534541
2025-09-10 18:53:56,1534654
2025-09-10 18:53:56,1534758
2025-09-10 18:53:56,1534916
2025-09-10 18:53:56,1535073
2025-09-10 18:53:56,1535260
2025-09-10 18:53:56,1535333
2025-09-10 18:53:56,1535662
2025-09-10 18:53:56,1535819
2025-09-10 18:53:56,1536026
2025-09-10 18:53:56,1536224
2025-09-10 18:53:56,1536394
2025-09-10 18:53:56,1536649
2025-09-10 18:53:56,1536870
2025-09-10 18:53:56,1537067
2025-09-10 18:53:56,1537262
2025-09-10 18:53:56,1537445
2025-09-10 18:53:56,1537601
2025-09-10 18:53:56,1537844
2025-09-10 18:53:56,1538019
2025-09-10 18:53:56,1538261
2025-09-10 18:53:56,1538418
2025-09-10 18:53:56,1538679
2025-09-10 18:53:56,1538920
2025-09-10 18:53:56,1538999
2025-09-10 18:53:56,1539201
2025-09-10 18:53:56,1539413
2025-09-10 18:53:56,1539605
2025-09-10 18:53:56,1539800
2025-09-10 18:53:56,1539938
2025-09-10 18:53:56,1540138
2025-09-10 18:53:56,1540112
2025-09-10 18:53:56,1539824
2025-09-10 18:53:56,1538976
2025-09-10 18:53:56,1537672
2025-09-10 18:53:56,1536478
2025-09-10 18:53:56,1535448
2025-09-10 18:53:56,1534374
2025-09-10 18:53:56,1533585
2025-09-10 18:53:56,1532774
2025-09-10 18:53:56,1532292
2025-09-10 18:53:56,1531711
2025-09-10 18:53:56,1531421
2025-09-10 18:53:56,1531143
2025-09-10 18:53:56,1531002
2025-09-10 18:53:56,1530905
2025-09-10 18:53:56,1530922
2025-09-10 18:53:56,1530944
2025-09-10 18:53:56,1531005
2025-09-10 18:53:56,1531060
2025-09-10 18:53:56,1531161
2025-09-10 18:53:56,1531264
2025-09-10 18:53:56,1531349
2025-09-10 18:53:56,1531439
2025-09-10 18:53:56,1531568
2025-09-10 18:53:56,1531734
2025-09-10 18:53:56,1531969
2025-09-10 18:53:56,1532085
2025-09-10 18:53:56,1532347
2025-09-10 18:53:56,1532604
2025-09-10 18:53:56,1532892
2025-09-10 18:53:56,1533154
2025-09-10 18:53:56,1533425
2025-09-10 18:53:56,1533617
2025-09-10 18:53:56,1533758
2025-09-10 18:53:56,1533848
2025-09-10 18:53:56,1533943
2025-09-10 18:53:56,1533996
2025-09-10 18:53:56,1533958
2025-09-10 18:53:56,1533964
2025-09-10 18:53:56,1533848
2025-09-10 18:53:56,1533933
2025-09-10 18:53:56,1533942
2025-09-10 18:53:56,1533992
2025-09-10 18:53:56,1534014
2025-09-10 18:53:56,1534065
2025-09-10 18:53:56,1534109
2025-09-10 18:53:56,1534266
2025-09-10 18:53:56,1534368
2025-09-10 18:53:56,1534435
2025-09-10 18:53:56,1534592
2025-09-10 18:53:56,1534794
2025-09-10 18:53:57,1534938
2025-09-10 18:53:57,1535144
2025-09-10 18:53:57,1535339
2025-09-10 18:53:57,1535497
2025-09-10 18:53:57,1535722
2025-09-10 18:53:57,1535915
2025-09-10 18:53:57,1536130
2025-09-10 18:53:57,1536253
2025-09-10 18:53:57,1536457
2025-09-10 18:53:57,1536751
2025-09-10 18:53:57,1536814
2025-09-10 18:53:57,1537009
2025-09-10 18:53:57,1537270
2025-09-10 18:53:57,1537439
2025-09-10 18:53:57,1537527
2025-09-10 18:53:57,1537741
2025-09-10 18:53:57,1537911
2025-09-10 18:53:57,1538103
2025-09-10 18:53:57,1538387
2025-09-10 18:53:57,1538566
2025-09-10 18:53:57,1538698
2025-09-10 18:53:57,1538903
2025-09-10 18:53:57,1539111
2025-09-10 18:53:57,1539241
2025-09-10 18:53:57,1539285
2025-09-10 18:53:57,1539083
2025-09-10 18:53:57,1538177
2025-09-10 18:53:57,1537110
2025-09-10 18:53:57,1535903
2025-09-10 18:53:57,1534848
2025-09-10 18:53:57,1533902
2025-09-10 18:53:57,1533055
2025-09-10 18:53:57,1532322
2025-09-10 18:53:57,1531769
2025-09-10 18:53:57,1531306
2025-09-10 18:53:57,1530981
2025-09-10 18:53:57,1530689
2025-09-10 18:53:57,1530493
2025-09-10 18:53:57,1530503
2025-09-10 18:53:57,1530456
2025-09-10 18:53:57,1530508
2025-09-10 18:53:57,1530658
2025-09-10 18:53:57,1530743
2025-09-10 18:53:57,1530851
2025-09-10 18:53:57,1530960
2025-09-10 18:53:57,1531165
2025-09-10 18:53:57,1531358
2025-09-10 18:53:57,1531492
2025-09-10 18:53:57,1531706
2025-09-10 18:53:57,1531992
2025-09-10 18:53:57,1532217
2025-09-10 18:53:57,1532594
2025-09-10 18:53:57,1532842
2025-09-10 18:53:57,1533149
2025-09-10 18:53:57,1533453
2025-09-10 18:53:57,1533554
2025-09-10 18:53:57,1533705
2025-09-10 18:53:57,1533784
2025-09-10 18:53:57,1533910
2025-09-10 18:53:57,1533913
2025-09-10 18:53:57,1533912
2025-09-10 18:53:57,1533976
2025-09-10 18:53:57,1533827
2025-09-10 18:53:57,1533771
2025-09-10 18:53:57,1533853
2025-09-10 18:53:57,1533794
2025-09-10 18:53:57,1533779
2025-09-10 18:53:57,1533872
2025-09-10 18:53:57,1533971
2025-09-10 18:53:57,1534100
2025-09-10 18:53:57,1534208
2025-09-10 18:53:57,1534282
2025-09-10 18:53:57,1534419
2025-09-10 18:53:57,1534525
2025-09-10 18:53:57,1534701
2025-09-10 18:53:57,1534841
2025-09-10 18:53:57,1535037
2025-09-10 18:53:57,1535204
2025-09-10 18:53:57,1535412
2025-09-10 18:53:57,1535491
2025-09-10 18:53:57,1535742
2025-09-10 18:53:57,1535990
2025-09-10 18:53:57,1536131
2025-09-10 18:53:57,1536346
2025-09-10 18:53:57,1536533
2025-09-10 18:53:57,1536743
2025-09-10 18:53:57,1536856
2025-09-10 18:53:57,1537083
2025-09-10 18:53:57,1537220
2025-09-10 18:53:56,1537473
2025-09-10 18:53:57,1537602
2025-09-10 18:53:57,1537908
2025-09-10 18:53:57,1537925
2025-09-10 18:53:57,1538215
2025-09-10 18:53:57,1538366
2025-09-10 18:53:57,1538412
2025-09-10 18:53:57,1538096
2025-09-10 18:53:57,1537356
2025-09-10 18:53:57,1536107
2025-09-10 18:53:57,1534913
2025-09-10 18:53:57,1533804
2025-09-10 18:53:58,1532833
2025-09-10 18:53:58,1531920
2025-09-10 18:53:58,1531258
2025-09-10 18:53:58,1530667
2025-09-10 18:53:58,1530214
2025-09-10 18:53:58,1529811
2025-09-10 18:53:58,1529560
2025-09-10 18:53:58,1529353
2025-09-10 18:53:58,1529272
2025-09-10 18:53:58,1529262
2025-09-10 18:53:58,1529267
2025-09-10 18:53:58,1529267
2025-09-10 18:53:58,1529280
2025-09-10 18:53:58,1529369
2025-09-10 18:53:58,1529415
2025-09-10 18:53:58,1529583
2025-09-10 18:53:58,1529689
2025-09-10 18:53:58,1529853
2025-09-10 18:53:58,1529958
2025-09-10 18:53:58,1530129
2025-09-10 18:53:58,1530355
2025-09-10 18:53:58,1530710
2025-09-10 18:53:58,1530843
2025-09-10 18:53:58,1531193
2025-09-10 18:53:58,1531472
2025-09-10 18:53:58,1531645
2025-09-10 18:53:58,1531883
2025-09-10 18:53:58,1532073
2025-09-10 18:53:58,1532086
2025-09-10 18:53:58,1532132
2025-09-10 18:53:58,1532183
2025-09-10 18:53:58,1532196
2025-09-10 18:53:58,1532152
2025-09-10 18:53:58,1532159
2025-09-10 18:53:58,1532160
2025-09-10 18:53:58,1532079
2025-09-10 18:53:58,1532261
2025-09-10 18:53:58,1532298
2025-09-10 18:53:58,1532298
2025-09-10 18:53:58,1532381
2025-09-10 18:53:58,1532535
2025-09-10 18:53:58,1532732
2025-09-10 18:53:58,1532769
2025-09-10 18:53:58,1532928
2025-09-10 18:53:58,1533046
2025-09-10 18:53:58,1533182
2025-09-10 18:53:58,1533392
2025-09-10 18:53:58,1533627
2025-09-10 18:53:58,1533782
2025-09-10 18:53:58,1533937
2025-09-10 18:53:58,1534097
2025-09-10 18:53:58,1534337
2025-09-10 18:53:58,1534537
2025-09-10 18:53:58,1534657
2025-09-10 18:53:58,1534857
2025-09-10 18:53:58,1534988
2025-09-10 18:53:58,1535189
2025-09-10 18:53:58,1535326
2025-09-10 18:53:58,1535558
2025-09-10 18:53:58,1535722
2025-09-10 18:53:58,1535997
2025-09-10 18:53:58,1536119
2025-09-10 18:53:58,1536284
2025-09-10 18:53:58,1536461
2025-09-10 18:53:58,1536572
2025-09-10 18:53:58,1536739
2025-09-10 18:53:58,1536260
2025-09-10 18:53:58,1535538
2025-09-10 18:53:58,1534441
2025-09-10 18:53:58,1533254
2025-09-10 18:53:58,1532149
2025-09-10 18:53:58,1532149
2025-09-10 18:53:58,1531152
2025-09-10 18:53:58,1530266
2025-09-10 18:53:58,1529529
2025-09-10 18:53:58,1528981
2025-09-10 18:53:58,1528547
2025-09-10 18:53:58,1527981
2025-09-10 18:53:58,1527773
2025-09-10 18:53:58,1527654
2025-09-10 18:53:58,1527487
2025-09-10 18:53:58,1527422
2025-09-10 18:53:58,1527424
2025-09-10 18:53:58,1527359
2025-09-10 18:53:58,1527321
2025-09-10 18:53:58,1527373
2025-09-10 18:53:58,1527387
2025-09-10 18:53:58,1527484
2025-09-10 18:53:58,1527459
2025-09-10 18:53:58,1527566
2025-09-10 18:53:58,1527627
2025-09-10 18:53:58,1527710
2025-09-10 18:53:58,1527891
2025-09-10 18:53:58,1528086
2025-09-10 18:53:58,1528263
2025-09-10 18:53:58,1528522
2025-09-10 18:53:58,1528833
2025-09-10 18:53:58,1529078
2025-09-10 18:53:58,1529310
2025-09-10 18:53:58,1529459
2025-09-10 18:53:59,1529703
2025-09-10 18:53:59,1529830
2025-09-10 18:53:59,1529837
2025-09-10 18:53:59,1529929
2025-09-10 18:53:59,1529924
2025-09-10 18:53:59,1529915
2025-09-10 18:53:59,1529982
2025-09-10 18:53:59,1529989
2025-09-10 18:53:59,1530036
2025-09-10 18:53:59,1530059
2025-09-10 18:53:59,1530111
2025-09-10 18:53:59,1530273
2025-09-10 18:53:59,1530359
2025-09-10 18:53:59,1530483
2025-09-10 18:53:59,1530633
2025-09-10 18:53:59,1530796
2025-09-10 18:53:59,1530878
2025-09-10 18:53:59,1531071
2025-09-10 18:53:59,1531213
2025-09-10 18:53:59,1531404
2025-09-10 18:53:59,1531667
2025-09-10 18:53:59,1531838
2025-09-10 18:53:59,1531978
2025-09-10 18:53:59,1532216
2025-09-10 18:53:59,1532343
2025-09-10 18:53:59,1532546
2025-09-10 18:53:59,1532861
2025-09-10 18:53:59,1532984
2025-09-10 18:53:59,1533253
2025-09-10 18:53:59,1533379
2025-09-10 18:53:59,1533624
2025-09-10 18:53:59,1533784
2025-09-10 18:53:59,1533926
2025-09-10 18:53:59,1534283
2025-09-10 18:53:59,1534369
2025-09-10 18:53:59,1534615
2025-09-10 18:53:59,1534729
2025-09-10 18:53:59,1535009
2025-09-10 18:53:59,1535168
2025-09-10 18:53:59,1535374
2025-09-10 18:53:59,1535569
2025-09-10 18:53:59,1535862
2025-09-10 18:53:59,1535977
2025-09-10 18:53:59,1536073
2025-09-10 18:53:59,1535861
2025-09-10 18:53:59,1535005
2025-09-10 18:53:59,1533844
2025-09-10 18:53:59,1532611
2025-09-10 18:53:59,1531466
2025-09-10 18:53:59,1530461
2025-09-10 18:53:59,1529479
2025-09-10 18:53:59,1528624
2025-09-10 18:53:59,1527999
2025-09-10 18:53:59,1527435
2025-09-10 18:53:59,1526978
2025-09-10 18:53:59,1526706
2025-09-10 18:53:59,1526503
2025-09-10 18:53:59,1526449
2025-09-10 18:53:59,1526251
2025-09-10 18:53:59,1526200
2025-09-10 18:53:59,1526212
2025-09-10 18:53:59,1526216
2025-09-10 18:53:59,1526247
2025-09-10 18:53:59,1526303
2025-09-10 18:53:59,1526291
2025-09-10 18:53:59,1526370
2025-09-10 18:53:59,1526392
2025-09-10 18:53:59,1526549
2025-09-10 18:53:59,1526578
2025-09-10 18:53:59,1526678
2025-09-10 18:53:59,1526862
2025-09-10 18:53:59,1527194
2025-09-10 18:53:59,1527367
2025-09-10 18:53:59,1527684
2025-09-10 18:53:59,1527881
2025-09-10 18:53:59,1528095
2025-09-10 18:53:59,1528311
2025-09-10 18:53:59,1528533
2025-09-10 18:53:59,1528706
2025-09-10 18:53:59,1528799
2025-09-10 18:53:59,1528868
2025-09-10 18:53:59,1528989
2025-09-10 18:53:59,1529003
2025-09-10 18:53:59,1529074
2025-09-10 18:53:59,1529026
2025-09-10 18:53:59,1529165
2025-09-10 18:53:59,1529256
2025-09-10 18:53:59,1529314
2025-09-10 18:53:59,1529370
2025-09-10 18:53:59,1529369
2025-09-10 18:53:59,1529593
2025-09-10 18:53:59,1529705
2025-09-10 18:53:59,1529809
2025-09-10 18:53:59,1529960
2025-09-10 18:53:59,1530165
2025-09-10 18:53:59,1530306
2025-09-10 18:53:59,1530493
2025-09-10 18:53:59,1530688
2025-09-10 18:53:59,1530967
2025-09-10 18:53:59,1531118
2025-09-10 18:54:00,1531372
2025-09-10 18:54:00,1531536
2025-09-10 18:54:00,1531776
2025-09-10 18:54:00,1531923
2025-09-10 18:54:00,1532193
2025-09-10 18:54:00,1532413
2025-09-10 18:54:00,1532586
2025-09-10 18:54:00,1532833
2025-09-10 18:54:00,1533141
2025-09-10 18:54:00,1533252
2025-09-10 18:54:00,1533456
2025-09-10 18:54:00,1533682
2025-09-10 18:54:00,1533888
2025-09-10 18:54:00,1534099
2025-09-10 18:54:00,1534311
2025-09-10 18:54:00,1534581
2025-09-10 18:54:00,1534799
2025-09-10 18:54:00,1535014
2025-09-10 18:54:00,1535159
2025-09-10 18:54:00,1535395
2025-09-10 18:54:00,1535578
2025-09-10 18:54:00,1535807
2025-09-10 18:54:00,1535968
2025-09-10 18:54:00,1536060
2025-09-10 18:54:00,1536389
2025-09-10 18:54:00,1536543
2025-09-10 18:54:00,1536757
2025-09-10 18:54:00,1536898
2025-09-10 18:54:00,1537078
2025-09-10 18:54:00,1536952
2025-09-10 18:54:00,1536341
2025-09-10 18:54:00,1535080
2025-09-10 18:54:00,1533843
2025-09-10 18:54:00,1532571
2025-09-10 18:54:00,1531399
2025-09-10 18:54:00,1530367
2025-09-10 18:54:00,1529460
2025-09-10 18:54:00,1528651
2025-09-10 18:54:00,1527986
2025-09-10 18:54:00,1527579
2025-09-10 18:54:00,1527111
2025-09-10 18:54:00,1526852
2025-09-10 18:54:00,1526670
2025-09-10 18:54:00,1526529
2025-09-10 18:54:00,1526499
2025-09-10 18:54:00,1526474
2025-09-10 18:54:00,1526457
2025-09-10 18:54:00,1526511
2025-09-10 18:54:00,1526537
2025-09-10 18:54:00,1526609
2025-09-10 18:54:00,1526684
2025-09-10 18:54:00,1526790
2025-09-10 18:54:00,1526890
2025-09-10 18:54:00,1527045
2025-09-10 18:54:00,1527130
2025-09-10 18:54:00,1527338
2025-09-10 18:54:00,1527502
2025-09-10 18:54:00,1527800
2025-09-10 18:54:00,1528067
2025-09-10 18:54:00,1528261
2025-09-10 18:54:00,1528497
2025-09-10 18:54:00,1528675
2025-09-10 18:54:00,1528913
2025-09-10 18:54:00,1529116
2025-09-10 18:54:00,1529252
2025-09-10 18:54:00,1529295
2025-09-10 18:54:00,1529406
2025-09-10 18:54:00,1529445
2025-09-10 18:54:00,1529420
2025-09-10 18:54:00,1529553
2025-09-10 18:54:00,1529507
2025-09-10 18:54:00,1529509
2025-09-10 18:54:00,1529580
2025-09-10 18:54:00,1529635
2025-09-10 18:54:00,1529752
2025-09-10 18:54:00,1529827
2025-09-10 18:54:00,1529976
2025-09-10 18:54:00,1530069
2025-09-10 18:54:00,1530174
2025-09-10 18:54:00,1530416
2025-09-10 18:54:00,1530568
2025-09-10 18:54:00,1530696
2025-09-10 18:54:00,1530892
2025-09-10 18:54:00,1531155
2025-09-10 18:54:00,1531171
2025-09-10 18:54:00,1531456
2025-09-10 18:54:00,1531659
2025-09-10 18:54:00,1531836
2025-09-10 18:54:00,1532042
2025-09-10 18:54:00,1532243
2025-09-10 18:54:00,1532486
2025-09-10 18:54:00,1532702
2025-09-10 18:54:00,1532923
2025-09-10 18:54:00,1533151
2025-09-10 18:54:00,1533386
2025-09-10 18:54:00,1533519
2025-09-10 18:54:00,1533749
2025-09-10 18:54:00,1533947
2025-09-10 18:54:00,1534154
2025-09-10 18:54:00,1534333
2025-09-10 18:54:01,1534533
2025-09-10 18:54:01,1534775
2025-09-10 18:54:01,1534996
2025-09-10 18:54:01,1535148
2025-09-10 18:54:01,1535384
2025-09-10 18:54:01,1535577
2025-09-10 18:54:01,1535585
2025-09-10 18:54:01,1535864
2025-09-10 18:54:01,1536044
2025-09-10 18:54:01,1536195
2025-09-10 18:54:01,1536432
2025-09-10 18:54:01,1536606
2025-09-10 18:54:01,1536732
2025-09-10 18:54:01,1537078
2025-09-10 18:54:01,1537173
2025-09-10 18:54:01,1537008
2025-09-10 18:54:01,1536428
2025-09-10 18:54:01,1535324
2025-09-10 18:54:01,1534019
2025-09-10 18:54:01,1532709
2025-09-10 18:54:01,1531610
2025-09-10 18:54:01,1530641
2025-09-10 18:54:01,1529627
2025-09-10 18:54:01,1528832
2025-09-10 18:54:01,1528211
2025-09-10 18:54:01,1527605
2025-09-10 18:54:01,1527304
2025-09-10 18:54:01,1526936
2025-09-10 18:54:01,1526914
2025-09-10 18:54:01,1526764
2025-09-10 18:54:01,1526794
2025-09-10 18:54:01,1526692
2025-09-10 18:54:01,1526718
2025-09-10 18:54:01,1526888
2025-09-10 18:54:01,1526856
2025-09-10 18:54:01,1526945
2025-09-10 18:54:01,1527050
2025-09-10 18:54:01,1527166
2025-09-10 18:54:01,1527302
2025-09-10 18:54:01,1527419
2025-09-10 18:54:01,1527638
2025-09-10 18:54:01,1527829
2025-09-10 18:54:01,1528056
2025-09-10 18:54:01,1528371
2025-09-10 18:54:01,1528664
2025-09-10 18:54:01,1528888
2025-09-10 18:54:01,1529054
2025-09-10 18:54:01,1529250
2025-09-10 18:54:01,1529478
2025-09-10 18:54:01,1529587
2025-09-10 18:54:01,1529664
2025-09-10 18:54:01,1529744
2025-09-10 18:54:01,1529771
2025-09-10 18:54:01,1529852
2025-09-10 18:54:01,1529817
2025-09-10 18:54:01,1529781
2025-09-10 18:54:01,1529844
2025-09-10 18:54:01,1529868
2025-09-10 18:54:01,1529955
2025-09-10 18:54:01,1530031
2025-09-10 18:54:01,1530132
2025-09-10 18:54:01,1530185
2025-09-10 18:54:01,1530335
2025-09-10 18:54:01,1530403
2025-09-10 18:54:01,1530555
2025-09-10 18:54:01,1530672
2025-09-10 18:54:01,1530923
2025-09-10 18:54:01,1531054
2025-09-10 18:54:01,1531262
2025-09-10 18:54:01,1531464
2025-09-10 18:54:01,1531606
2025-09-10 18:54:01,1531905
2025-09-10 18:54:01,1532026
2025-09-10 18:54:01,1532303
2025-09-10 18:54:01,1532487
2025-09-10 18:54:01,1532709
2025-09-10 18:54:01,1532882
2025-09-10 18:54:01,1533144
2025-09-10 18:54:01,1533259
2025-09-10 18:54:01,1533563
2025-09-10 18:54:01,1533737
2025-09-10 18:54:01,1533876
2025-09-10 18:54:01,1534135
2025-09-10 18:54:01,1534261
2025-09-10 18:54:01,1534462
2025-09-10 18:54:01,1534669
2025-09-10 18:54:01,1534908
2025-09-10 18:54:01,1535102
2025-09-10 18:54:01,1535315
2025-09-10 18:54:01,1535422
2025-09-10 18:54:01,1535698
2025-09-10 18:54:01,1535855
2025-09-10 18:54:01,1536054
2025-09-10 18:54:01,1536237
2025-09-10 18:54:01,1536495
2025-09-10 18:54:01,1536604
2025-09-10 18:54:01,1536910
2025-09-10 18:54:01,1536927
2025-09-10 18:54:01,1537005
2025-09-10 18:54:01,1536702
2025-09-10 18:54:02,1535873
2025-09-10 18:54:02,1534572
2025-09-10 18:54:02,1533326
2025-09-10 18:54:02,1532158
2025-09-10 18:54:02,1531175
2025-09-10 18:54:02,1530163
2025-09-10 18:54:02,1529387
2025-09-10 18:54:02,1528633
2025-09-10 18:54:02,1528218
2025-09-10 18:54:02,1527842
2025-09-10 18:54:02,1527526
2025-09-10 18:54:02,1527303
2025-09-10 18:54:02,1527277
2025-09-10 18:54:02,1527258
2025-09-10 18:54:02,1527221
2025-09-10 18:54:02,1527243
2025-09-10 18:54:02,1527417
2025-09-10 18:54:02,1527502
2025-09-10 18:54:02,1527566
2025-09-10 18:54:02,1527797
2025-09-10 18:54:02,1527938
2025-09-10 18:54:02,1528085
2025-09-10 18:54:02,1528382
2025-09-10 18:54:02,1528489
2025-09-10 18:54:02,1528846
2025-09-10 18:54:02,1529122
2025-09-10 18:54:02,1529461
2025-09-10 18:54:02,1529674
2025-09-10 18:54:02,1530018
2025-09-10 18:54:02,1530290
2025-09-10 18:54:02,1530393
2025-09-10 18:54:02,1530538
2025-09-10 18:54:02,1530663
2025-09-10 18:54:02,1530747
2025-09-10 18:54:02,1530786
2025-09-10 18:54:02,1530749
2025-09-10 18:54:02,1530760
2025-09-10 18:54:02,1530677
2025-09-10 18:54:02,1530743
2025-09-10 18:54:02,1530775
2025-09-10 18:54:02,1530794
2025-09-10 18:54:02,1530813
2025-09-10 18:54:02,1530886
2025-09-10 18:54:02,1530927
2025-09-10 18:54:02,1531051
2025-09-10 18:54:02,1531065
2025-09-10 18:54:02,1531177
2025-09-10 18:54:02,1531378
2025-09-10 18:54:02,1531454
2025-09-10 18:54:02,1531654
2025-09-10 18:54:02,1531801
2025-09-10 18:54:02,1531996
2025-09-10 18:54:02,1532115
2025-09-10 18:54:02,1532320
2025-09-10 18:54:02,1532527
2025-09-10 18:54:02,1532619
2025-09-10 18:54:02,1532806
2025-09-10 18:54:02,1533048
2025-09-10 18:54:02,1533245
2025-09-10 18:54:02,1533449
2025-09-10 18:54:02,1533617
2025-09-10 18:54:02,1533755
2025-09-10 18:54:02,1533903
2025-09-10 18:54:02,1534064
2025-09-10 18:54:02,1534219
2025-09-10 18:54:02,1534460
2025-09-10 18:54:02,1534534
2025-09-10 18:54:02,1534788
2025-09-10 18:54:02,1535083
2025-09-10 18:54:02,1535177
2025-09-10 18:54:02,1535374
2025-09-10 18:54:02,1535618
2025-09-10 18:54:02,1535683
2025-09-10 18:54:02,1535696
2025-09-10 18:54:02,1535579
2025-09-10 18:54:02,1534995
2025-09-10 18:54:02,1533972
2025-09-10 18:54:02,1532721
2025-09-10 18:54:02,1531583
2025-09-10 18:54:02,1530534
2025-09-10 18:54:02,1529604
2025-09-10 18:54:02,1528742
2025-09-10 18:54:02,1528080
2025-09-10 18:54:02,1527440
2025-09-10 18:54:02,1527020
2025-09-10 18:54:02,1526663
2025-09-10 18:54:02,1526478
2025-09-10 18:54:02,1526325
2025-09-10 18:54:02,1526192
2025-09-10 18:54:02,1526252
2025-09-10 18:54:02,1526301
2025-09-10 18:54:02,1526362
2025-09-10 18:54:02,1526421
2025-09-10 18:54:02,1526482
2025-09-10 18:54:02,1526545
2025-09-10 18:54:02,1526690
2025-09-10 18:54:02,1526846
2025-09-10 18:54:02,1526986
2025-09-10 18:54:02,1527180
2025-09-10 18:54:02,1527382
2025-09-10 18:54:02,1527725
2025-09-10 18:54:03,1527905
2025-09-10 18:54:03,1528273
2025-09-10 18:54:03,1528469
2025-09-10 18:54:03,1528780
2025-09-10 18:54:03,1529054
2025-09-10 18:54:03,1529224
2025-09-10 18:54:03,1529345
2025-09-10 18:54:03,1529505
2025-09-10 18:54:03,1529514
2025-09-10 18:54:03,1529513
2025-09-10 18:54:03,1529628
2025-09-10 18:54:03,1529625
2025-09-10 18:54:03,1529635
2025-09-10 18:54:03,1529654
2025-09-10 18:54:03,1529651
2025-09-10 18:54:03,1529745
2025-09-10 18:54:03,1529717
2025-09-10 18:54:03,1529823
2025-09-10 18:54:03,1529861
2025-09-10 18:54:03,1530006
2025-09-10 18:54:03,1530198
2025-09-10 18:54:03,1530268
2025-09-10 18:54:03,1530346
2025-09-10 18:54:03,1530532
2025-09-10 18:54:03,1530721
2025-09-10 18:54:03,1530876
2025-09-10 18:54:03,1531000
2025-09-10 18:54:03,1531213
2025-09-10 18:54:03,1531391
2025-09-10 18:54:03,1531658
2025-09-10 18:54:03,1531893
2025-09-10 18:54:03,1532018
2025-09-10 18:54:03,1532242
2025-09-10 18:54:03,1532451
2025-09-10 18:54:03,1532627
2025-09-10 18:54:03,1532834
2025-09-10 18:54:03,1533102
2025-09-10 18:54:03,1533269
2025-09-10 18:54:03,1533371
2025-09-10 18:54:03,1533557
2025-09-10 18:54:03,1533725
2025-09-10 18:54:03,1533944
2025-09-10 18:54:03,1534212
2025-09-10 18:54:03,1534473
2025-09-10 18:54:03,1534587
2025-09-10 18:54:03,1534805
2025-09-10 18:54:03,1535035
2025-09-10 18:54:03,1535095
2025-09-10 18:54:03,1535052
2025-09-10 18:54:03,1534656
2025-09-10 18:54:03,1533723
2025-09-10 18:54:03,1532570
2025-09-10 18:54:03,1531341
2025-09-10 18:54:03,1530130
2025-09-10 18:54:03,1529075
2025-09-10 18:54:03,1528119
2025-09-10 18:54:03,1527267
2025-09-10 18:54:03,1526683
2025-09-10 18:54:03,1526134
2025-09-10 18:54:03,1525765
2025-09-10 18:54:03,1525500
2025-09-10 18:54:03,1525206
2025-09-10 18:54:03,1525023
2025-09-10 18:54:03,1524957
2025-09-10 18:54:03,1524918
2025-09-10 18:54:03,1524927
2025-09-10 18:54:03,1524940
2025-09-10 18:54:03,1525027
2025-09-10 18:54:03,1525076
2025-09-10 18:54:03,1525094
2025-09-10 18:54:03,1525188
2025-09-10 18:54:03,1525292
2025-09-10 18:54:03,1525477
2025-09-10 18:54:03,1525564
2025-09-10 18:54:03,1525723
2025-09-10 18:54:03,1525929
2025-09-10 18:54:03,1526210
2025-09-10 18:54:03,1526439
2025-09-10 18:54:03,1526730
2025-09-10 18:54:03,1527023
2025-09-10 18:54:03,1527142
2025-09-10 18:54:03,1527378
2025-09-10 18:54:03,1527503
2025-09-10 18:54:03,1527697
2025-09-10 18:54:03,1527700
2025-09-10 18:54:03,1527783
2025-09-10 18:54:03,1527857
2025-09-10 18:54:03,1527880
2025-09-10 18:54:03,1527893
2025-09-10 18:54:03,1527931
2025-09-10 18:54:03,1527962
2025-09-10 18:54:03,1527965
2025-09-10 18:54:03,1528077
2025-09-10 18:54:03,1528091
2025-09-10 18:54:03,1528235
2025-09-10 18:54:03,1528349
2025-09-10 18:54:03,1528429
2025-09-10 18:54:03,1528548
2025-09-10 18:54:03,1528728
2025-09-10 18:54:04,1528856
2025-09-10 18:54:04,1529003
2025-09-10 18:54:04,1529212
2025-09-10 18:54:04,1529365
2025-09-10 18:54:04,1529548
2025-09-10 18:54:04,1529796
2025-09-10 18:54:04,1529956
2025-09-10 18:54:04,1530178
2025-09-10 18:54:04,1530328
2025-09-10 18:54:04,1530596
2025-09-10 18:54:04,1530812
2025-09-10 18:54:04,1530970
2025-09-10 18:54:04,1531229
2025-09-10 18:54:04,1531463
2025-09-10 18:54:04,1531678
2025-09-10 18:54:04,1531854
2025-09-10 18:54:04,1531979
2025-09-10 18:54:04,1532233
2025-09-10 18:54:04,1532383
2025-09-10 18:54:04,1532609
2025-09-10 18:54:04,1532755
2025-09-10 18:54:04,1533045
2025-09-10 18:54:04,1533123
2025-09-10 18:54:04,1533378
2025-09-10 18:54:04,1533637
2025-09-10 18:54:04,1533787
2025-09-10 18:54:04,1533898
2025-09-10 18:54:04,1533760
2025-09-10 18:54:04,1533183
2025-09-10 18:54:04,1532062
2025-09-10 18:54:04,1530908
2025-09-10 18:54:04,1529658
2025-09-10 18:54:04,1528568
2025-09-10 18:54:04,1527504
2025-09-10 18:54:04,1526679
2025-09-10 18:54:04,1525866
2025-09-10 18:54:04,1525328
2025-09-10 18:54:04,1524850
2025-09-10 18:54:04,1524462
2025-09-10 18:54:04,1524346
2025-09-10 18:54:04,1524024
2025-09-10 18:54:04,1524026
2025-09-10 18:54:04,1523853
2025-09-10 18:54:04,1523947
2025-09-10 18:54:04,1523965
2025-09-10 18:54:04,1523918
2025-09-10 18:54:04,1524056
2025-09-10 18:54:04,1524134
2025-09-10 18:54:04,1524192
2025-09-10 18:54:04,1524319
2025-09-10 18:54:04,1524425
2025-09-10 18:54:04,1524570
2025-09-10 18:54:04,1524762
2025-09-10 18:54:04,1524943
2025-09-10 18:54:04,1525186
2025-09-10 18:54:04,1525520
2025-09-10 18:54:04,1525773
2025-09-10 18:54:04,1526090
2025-09-10 18:54:04,1526248
2025-09-10 18:54:04,1526389
2025-09-10 18:54:04,1526594
2025-09-10 18:54:04,1526732
2025-09-10 18:54:04,1526841
2025-09-10 18:54:04,1526959
2025-09-10 18:54:04,1526995
2025-09-10 18:54:04,1526990
2025-09-10 18:54:04,1526944
2025-09-10 18:54:04,1527041
2025-09-10 18:54:04,1527093
2025-09-10 18:54:04,1527102
2025-09-10 18:54:04,1527145
2025-09-10 18:54:04,1527223
2025-09-10 18:54:04,1527272
2025-09-10 18:54:04,1527358
2025-09-10 18:54:04,1527544
2025-09-10 18:54:04,1527616
2025-09-10 18:54:04,1527778
2025-09-10 18:54:04,1527893
2025-09-10 18:54:04,1528179
2025-09-10 18:54:04,1528368
2025-09-10 18:54:04,1528442
2025-09-10 18:54:04,1528710
2025-09-10 18:54:04,1528814
2025-09-10 18:54:04,1529068
2025-09-10 18:54:04,1529259
2025-09-10 18:54:04,1529452
2025-09-10 18:54:04,1529701
2025-09-10 18:54:04,1529954
2025-09-10 18:54:04,1530125
2025-09-10 18:54:04,1530332
2025-09-10 18:54:04,1530580
2025-09-10 18:54:04,1530739
2025-09-10 18:54:04,1530959
2025-09-10 18:54:04,1531166
2025-09-10 18:54:04,1531368
2025-09-10 18:54:04,1531492
2025-09-10 18:54:04,1531685
2025-09-10 18:54:04,1531922
2025-09-10 18:54:04,1532193
2025-09-10 18:54:04,1532322
2025-09-10 18:54:05,1532585
2025-09-10 18:54:05,1532714
2025-09-10 18:54:05,1532946
2025-09-10 18:54:05,1533027
2025-09-10 18:54:05,1532766
2025-09-10 18:54:05,1532169
2025-09-10 18:54:05,1531085
2025-09-10 18:54:05,1529857
2025-09-10 18:54:05,1528612
2025-09-10 18:54:05,1527674
2025-09-10 18:54:05,1526676
2025-09-10 18:54:05,1525871
2025-09-10 18:54:05,1525163
2025-09-10 18:54:05,1524599
2025-09-10 18:54:05,1524229
2025-09-10 18:54:05,1523863
2025-09-10 18:54:05,1523708
2025-09-10 18:54:05,1523575
2025-09-10 18:54:05,1523472
2025-09-10 18:54:05,1523522
2025-09-10 18:54:05,1523518
2025-09-10 18:54:05,1523557
2025-09-10 18:54:05,1523691
2025-09-10 18:54:05,1523785
2025-09-10 18:54:05,1523928
2025-09-10 18:54:05,1524082
2025-09-10 18:54:05,1524191
2025-09-10 18:54:05,1524413
2025-09-10 18:54:05,1524567
2025-09-10 18:54:05,1524897
2025-09-10 18:54:05,1525066
2025-09-10 18:54:05,1525357
2025-09-10 18:54:05,1525707
2025-09-10 18:54:05,1526029
2025-09-10 18:54:05,1526172
2025-09-10 18:54:05,1526405
2025-09-10 18:54:05,1526610
2025-09-10 18:54:05,1526748
2025-09-10 18:54:05,1526800
2025-09-10 18:54:05,1526802
2025-09-10 18:54:05,1526870
2025-09-10 18:54:05,1526897
2025-09-10 18:54:05,1526909
2025-09-10 18:54:05,1526771
2025-09-10 18:54:05,1526987
2025-09-10 18:54:05,1526885
2025-09-10 18:54:05,1526989
2025-09-10 18:54:05,1526994
2025-09-10 18:54:05,1527032
2025-09-10 18:54:05,1527177
2025-09-10 18:54:05,1527245
2025-09-10 18:54:05,1527358
2025-09-10 18:54:05,1527478
2025-09-10 18:54:05,1527698
2025-09-10 18:54:05,1527849
2025-09-10 18:54:05,1527992
2025-09-10 18:54:05,1528132
2025-09-10 18:54:05,1528279
2025-09-10 18:54:05,1528524
2025-09-10 18:54:05,1528667
2025-09-10 18:54:05,1528850
2025-09-10 18:54:05,1529095
2025-09-10 18:54:05,1529286
2025-09-10 18:54:05,1529433
2025-09-10 18:54:05,1529694
2025-09-10 18:54:05,1529818
2025-09-10 18:54:05,1529965
2025-09-10 18:54:05,1530162
2025-09-10 18:54:05,1530380
2025-09-10 18:54:05,1530496
2025-09-10 18:54:05,1530726
2025-09-10 18:54:05,1530904
2025-09-10 18:54:05,1531103
2025-09-10 18:54:05,1531253
2025-09-10 18:54:05,1531442
2025-09-10 18:54:05,1531636
2025-09-10 18:54:05,1531828
2025-09-10 18:54:05,1531982
2025-09-10 18:54:05,1531910
2025-09-10 18:54:05,1531548
2025-09-10 18:54:05,1530713
2025-09-10 18:54:05,1529471
2025-09-10 18:54:05,1528361
2025-09-10 18:54:05,1527199
2025-09-10 18:54:05,1526155
2025-09-10 18:54:05,1525342
2025-09-10 18:54:05,1524594
2025-09-10 18:54:05,1523904
2025-09-10 18:54:05,1523419
2025-09-10 18:54:05,1523052
2025-09-10 18:54:05,1522747
2025-09-10 18:54:05,1522577
2025-09-10 18:54:05,1522545
2025-09-10 18:54:05,1522496
2025-09-10 18:54:05,1522465
2025-09-10 18:54:05,1522453
2025-09-10 18:54:05,1522521
2025-09-10 18:54:05,1522584
2025-09-10 18:54:05,1522712
2025-09-10 18:54:05,1522812
2025-09-10 18:54:06,1523010
2025-09-10 18:54:06,1523098
2025-09-10 18:54:06,1523258
2025-09-10 18:54:06,1523515
2025-09-10 18:54:06,1523690
2025-09-10 18:54:06,1523922
2025-09-10 18:54:06,1524212
2025-09-10 18:54:06,1524470
2025-09-10 18:54:06,1524776
2025-09-10 18:54:06,1525025
2025-09-10 18:54:06,1525125
2025-09-10 18:54:06,1525313
2025-09-10 18:54:06,1525411
2025-09-10 18:54:06,1525498
2025-09-10 18:54:06,1525528
2025-09-10 18:54:06,1525579
2025-09-10 18:54:06,1525554
2025-09-10 18:54:06,1525589
2025-09-10 18:54:06,1525606
2025-09-10 18:54:06,1525711
2025-09-10 18:54:06,1525567
2025-09-10 18:54:06,1525665
2025-09-10 18:54:06,1525800
2025-09-10 18:54:06,1525809
2025-09-10 18:54:06,1525951
2025-09-10 18:54:06,1526064
2025-09-10 18:54:06,1526246
2025-09-10 18:54:06,1526307
2025-09-10 18:54:06,1526478
2025-09-10 18:54:06,1526632
2025-09-10 18:54:06,1526855
2025-09-10 18:54:06,1527106
2025-09-10 18:54:06,1527218
2025-09-10 18:54:06,1527438
2025-09-10 18:54:06,1527627
2025-09-10 18:54:06,1527911
2025-09-10 18:54:06,1528121
2025-09-10 18:54:06,1528283
2025-09-10 18:54:06,1528423
2025-09-10 18:54:06,1528646
2025-09-10 18:54:06,1528835
2025-09-10 18:54:06,1529088
2025-09-10 18:54:06,1529304
2025-09-10 18:54:06,1529499
2025-09-10 18:54:06,1529694
2025-09-10 18:54:06,1529832
2025-09-10 18:54:06,1529966
2025-09-10 18:54:06,1530260
2025-09-10 18:54:06,1530341
2025-09-10 18:54:06,1530619
2025-09-10 18:54:06,1530828
2025-09-10 18:54:06,1531073
2025-09-10 18:54:06,1531364
2025-09-10 18:54:06,1531470
2025-09-10 18:54:06,1531658
2025-09-10 18:54:06,1531673
2025-09-10 18:54:06,1531384
2025-09-10 18:54:06,1530501
2025-09-10 18:54:06,1529343
2025-09-10 18:54:06,1528041
2025-09-10 18:54:06,1526862
2025-09-10 18:54:06,1525729
2025-09-10 18:54:06,1524779
2025-09-10 18:54:06,1523967
2025-09-10 18:54:06,1523218
2025-09-10 18:54:06,1522661
2025-09-10 18:54:06,1522283
2025-09-10 18:54:06,1521934
2025-09-10 18:54:06,1521658
2025-09-10 18:54:06,1521596
2025-09-10 18:54:06,1521428
2025-09-10 18:54:06,1521393
2025-09-10 18:54:06,1521375
2025-09-10 18:54:06,1521311
2025-09-10 18:54:06,1521420
2025-09-10 18:54:06,1521435
2025-09-10 18:54:06,1521498
2025-09-10 18:54:06,1521559
2025-09-10 18:54:06,1521604
2025-09-10 18:54:06,1521774
2025-09-10 18:54:06,1521915
2025-09-10 18:54:06,1522139
2025-09-10 18:54:06,1522279
2025-09-10 18:54:06,1522479
2025-09-10 18:54:06,1522687
2025-09-10 18:54:06,1522938
2025-09-10 18:54:06,1523203
2025-09-10 18:54:06,1523440
2025-09-10 18:54:06,1523646
2025-09-10 18:54:06,1523771
2025-09-10 18:54:06,1523935
2025-09-10 18:54:06,1524055
2025-09-10 18:54:06,1524231
2025-09-10 18:54:06,1524115
2025-09-10 18:54:06,1524250
2025-09-10 18:54:06,1524303
2025-09-10 18:54:06,1524282
2025-09-10 18:54:06,1524388
2025-09-10 18:54:06,1524418
2025-09-10 18:54:06,1524384
2025-09-10 18:54:06,1524513
2025-09-10 18:54:07,1524618
2025-09-10 18:54:07,1524700
2025-09-10 18:54:07,1524841
2025-09-10 18:54:07,1524992
2025-09-10 18:54:07,1525092
2025-09-10 18:54:07,1525227
2025-09-10 18:54:07,1525410
2025-09-10 18:54:07,1525659
2025-09-10 18:54:07,1525850
2025-09-10 18:54:07,1526041
2025-09-10 18:54:07,1526288
2025-09-10 18:54:07,1526531
2025-09-10 18:54:07,1526738
2025-09-10 18:54:07,1526959
2025-09-10 18:54:07,1527185
2025-09-10 18:54:07,1527397
2025-09-10 18:54:07,1527686
2025-09-10 18:54:07,1527870
2025-09-10 18:54:07,1528118
2025-09-10 18:54:07,1528351
2025-09-10 18:54:07,1528533
2025-09-10 18:54:07,1528791
2025-09-10 18:54:07,1529015
2025-09-10 18:54:07,1529210
2025-09-10 18:54:07,1529455
2025-09-10 18:54:07,1529643
2025-09-10 18:54:07,1529871
2025-09-10 18:54:07,1529972
2025-09-10 18:54:07,1530219
2025-09-10 18:54:07,1530442
2025-09-10 18:54:07,1530688
2025-09-10 18:54:07,1530835
2025-09-10 18:54:07,1531155
2025-09-10 18:54:07,1531304
2025-09-10 18:54:07,1531516
2025-09-10 18:54:07,1531715
2025-09-10 18:54:07,1531872
2025-09-10 18:54:07,1531936
2025-09-10 18:54:07,1531666
2025-09-10 18:54:07,1530811
2025-09-10 18:54:07,1529565
2025-09-10 18:54:07,1528327
2025-09-10 18:54:07,1527121
2025-09-10 18:54:07,1525934
2025-09-10 18:54:07,1525051
2025-09-10 18:54:07,1524155
2025-09-10 18:54:07,1523451
2025-09-10 18:54:07,1522836
2025-09-10 18:54:07,1522429
2025-09-10 18:54:07,1522069
2025-09-10 18:54:07,1521900
2025-09-10 18:54:07,1521736
2025-09-10 18:54:07,1521698
2025-09-10 18:54:07,1521770
2025-09-10 18:54:07,1521720
2025-09-10 18:54:07,1521769
2025-09-10 18:54:07,1521914
2025-09-10 18:54:07,1521975
2025-09-10 18:54:07,1522065
2025-09-10 18:54:07,1522210
2025-09-10 18:54:07,1522289
2025-09-10 18:54:07,1522501
2025-09-10 18:54:07,1522693
2025-09-10 18:54:07,1522870
2025-09-10 18:54:07,1523104
2025-09-10 18:54:07,1523363
2025-09-10 18:54:07,1523733
2025-09-10 18:54:07,1523925
2025-09-10 18:54:07,1524152
2025-09-10 18:54:07,1524452
2025-09-10 18:54:07,1524631
2025-09-10 18:54:07,1524748
2025-09-10 18:54:07,1524893
2025-09-10 18:54:07,1524907
2025-09-10 18:54:07,1524997
2025-09-10 18:54:07,1525187
2025-09-10 18:54:07,1525059
2025-09-10 18:54:07,1525041
2025-09-10 18:54:07,1525080
2025-09-10 18:54:07,1525095
2025-09-10 18:54:07,1525108
2025-09-10 18:54:07,1525215
2025-09-10 18:54:07,1525244
2025-09-10 18:54:07,1525376
2025-09-10 18:54:07,1525501
2025-09-10 18:54:07,1525530
2025-09-10 18:54:07,1525624
2025-09-10 18:54:07,1525831
2025-09-10 18:54:07,1525914
2025-09-10 18:54:07,1526184
2025-09-10 18:54:07,1526324
2025-09-10 18:54:07,1526495
2025-09-10 18:54:07,1526711
2025-09-10 18:54:07,1526891
2025-09-10 18:54:07,1527068
2025-09-10 18:54:07,1527249
2025-09-10 18:54:07,1527468
2025-09-10 18:54:07,1527724
2025-09-10 18:54:07,1527843
2025-09-10 18:54:07,1528106
2025-09-10 18:54:08,1528197
2025-09-10 18:54:08,1528424
2025-09-10 18:54:08,1528588
2025-09-10 18:54:08,1528900
2025-09-10 18:54:08,1529025
2025-09-10 18:54:08,1529207
2025-09-10 18:54:08,1529454
2025-09-10 18:54:08,1529626
2025-09-10 18:54:08,1529764
2025-09-10 18:54:08,1530010
2025-09-10 18:54:08,1530201
2025-09-10 18:54:08,1530446
2025-09-10 18:54:08,1530588
2025-09-10 18:54:08,1530824
2025-09-10 18:54:08,1530914
2025-09-10 18:54:08,1531137
2025-09-10 18:54:08,1531421
2025-09-10 18:54:08,1531551
2025-09-10 18:54:08,1531670
2025-09-10 18:54:08,1531604
2025-09-10 18:54:08,1530964
2025-09-10 18:54:08,1529927
2025-09-10 18:54:08,1528690
2025-09-10 18:54:08,1527380
2025-09-10 18:54:08,1526309
2025-09-10 18:54:08,1525300
2025-09-10 18:54:08,1524368
2025-09-10 18:54:08,1523653
2025-09-10 18:54:08,1523033
2025-09-10 18:54:08,1522542
2025-09-10 18:54:08,1522130
2025-09-10 18:54:08,1521933
2025-09-10 18:54:08,1521768
2025-09-10 18:54:08,1521728
2025-09-10 18:54:08,1521739
2025-09-10 18:54:08,1521711
2025-09-10 18:54:08,1521750
2025-09-10 18:54:08,1521835
2025-09-10 18:54:08,1521950
2025-09-10 18:54:08,1522052
2025-09-10 18:54:08,1522143
2025-09-10 18:54:08,1522254
2025-09-10 18:54:08,1522494
2025-09-10 18:54:08,1522648
2025-09-10 18:54:08,1522752
2025-09-10 18:54:08,1523075
2025-09-10 18:54:08,1523298
2025-09-10 18:54:08,1523668
2025-09-10 18:54:08,1523928
2025-09-10 18:54:08,1524192
2025-09-10 18:54:08,1524474
2025-09-10 18:54:08,1524642
2025-09-10 18:54:08,1524776
2025-09-10 18:54:08,1524881
2025-09-10 18:54:08,1524881
2025-09-10 18:54:08,1524944
2025-09-10 18:54:08,1524998
2025-09-10 18:54:08,1525111
2025-09-10 18:54:08,1525107
2025-09-10 18:54:08,1525042
2025-09-10 18:54:08,1525058
2025-09-10 18:54:08,1525153
2025-09-10 18:54:08,1525206
2025-09-10 18:54:08,1525220
2025-09-10 18:54:08,1525249
2025-09-10 18:54:08,1525344
2025-09-10 18:54:08,1525415
2025-09-10 18:54:08,1525626
2025-09-10 18:54:08,1525757
2025-09-10 18:54:08,1525886
2025-09-10 18:54:08,1526029
2025-09-10 18:54:08,1526166
2025-09-10 18:54:08,1526322
2025-09-10 18:54:08,1526589
2025-09-10 18:54:08,1526823
2025-09-10 18:54:08,1526925
2025-09-10 18:54:08,1527221
2025-09-10 18:54:08,1527366
2025-09-10 18:54:08,1527614
2025-09-10 18:54:08,1527809
2025-09-10 18:54:08,1528045
2025-09-10 18:54:08,1528260
2025-09-10 18:54:08,1528454
2025-09-10 18:54:08,1528664
2025-09-10 18:54:08,1528874
2025-09-10 18:54:08,1529084
2025-09-10 18:54:08,1529356
2025-09-10 18:54:08,1529545
2025-09-10 18:54:08,1529704
2025-09-10 18:54:08,1529949
2025-09-10 18:54:08,1530107
2025-09-10 18:54:08,1530313
2025-09-10 18:54:08,1530466
2025-09-10 18:54:08,1530746
2025-09-10 18:54:08,1530957
2025-09-10 18:54:08,1531042
2025-09-10 18:54:08,1531231
2025-09-10 18:54:08,1531441
2025-09-10 18:54:08,1531714
2025-09-10 18:54:08,1531920
2025-09-10 18:54:08,1532087
2025-09-10 18:54:09,1532260
2025-09-10 18:54:09,1532274
2025-09-10 18:54:09,1531953
2025-09-10 18:54:09,1530991
2025-09-10 18:54:09,1529683
2025-09-10 18:54:09,1528484
2025-09-10 18:54:09,1527216
2025-09-10 18:54:09,1526112
2025-09-10 18:54:09,1525058
2025-09-10 18:54:09,1524149
2025-09-10 18:54:09,1523487
2025-09-10 18:54:09,1522844
2025-09-10 18:54:09,1522372
2025-09-10 18:54:09,1522014
2025-09-10 18:54:09,1521726
2025-09-10 18:54:09,1521651
2025-09-10 18:54:09,1521612
2025-09-10 18:54:09,1521591
2025-09-10 18:54:09,1521527
2025-09-10 18:54:09,1521613
2025-09-10 18:54:09,1521678
2025-09-10 18:54:09,1521654
2025-09-10 18:54:09,1521751
2025-09-10 18:54:09,1521866
2025-09-10 18:54:09,1522043
2025-09-10 18:54:09,1522090
2025-09-10 18:54:09,1522261
2025-09-10 18:54:09,1522494
2025-09-10 18:54:09,1522685
2025-09-10 18:54:09,1522880
2025-09-10 18:54:09,1523239
2025-09-10 18:54:09,1523478
2025-09-10 18:54:09,1523764
2025-09-10 18:54:09,1524059
2025-09-10 18:54:09,1524166
2025-09-10 18:54:09,1524445
2025-09-10 18:54:09,1524512
2025-09-10 18:54:09,1524663
2025-09-10 18:54:09,1524769
2025-09-10 18:54:09,1524747
2025-09-10 18:54:09,1524831
2025-09-10 18:54:09,1524798
2025-09-10 18:54:09,1524838
2025-09-10 18:54:09,1524886
2025-09-10 18:54:09,1524956
2025-09-10 18:54:09,1524965
2025-09-10 18:54:09,1525002
2025-09-10 18:54:09,1525126
2025-09-10 18:54:09,1525189
2025-09-10 18:54:09,1525402
2025-09-10 18:54:09,1525506
2025-09-10 18:54:09,1525623
2025-09-10 18:54:09,1525764
2025-09-10 18:54:09,1525920
2025-09-10 18:54:09,1526133
2025-09-10 18:54:09,1526307
2025-09-10 18:54:09,1526511
2025-09-10 18:54:09,1526797
2025-09-10 18:54:09,1526936
2025-09-10 18:54:09,1527136
2025-09-10 18:54:09,1527387
2025-09-10 18:54:09,1527639
2025-09-10 18:54:09,1527773
2025-09-10 18:54:09,1528017
2025-09-10 18:54:09,1528294
2025-09-10 18:54:09,1528554
2025-09-10 18:54:09,1528693
2025-09-10 18:54:09,1528940
2025-09-10 18:54:09,1529123
2025-09-10 18:54:09,1529282
2025-09-10 18:54:09,1529541
2025-09-10 18:54:09,1529796
2025-09-10 18:54:09,1530025
2025-09-10 18:54:09,1530232
2025-09-10 18:54:09,1530442
2025-09-10 18:54:09,1530606
2025-09-10 18:54:09,1530793
2025-09-10 18:54:09,1531019
2025-09-10 18:54:09,1531154
2025-09-10 18:54:09,1531426
2025-09-10 18:54:09,1531614
2025-09-10 18:54:09,1531751
2025-09-10 18:54:09,1531958
2025-09-10 18:54:09,1532222
2025-09-10 18:54:09,1532311
2025-09-10 18:54:09,1532311
2025-09-10 18:54:09,1532480
2025-09-10 18:54:09,1532445
2025-09-10 18:54:09,1532101
2025-09-10 18:54:09,1531047
2025-09-10 18:54:09,1529752
2025-09-10 18:54:09,1528431
2025-09-10 18:54:09,1527206
2025-09-10 18:54:09,1526208
2025-09-10 18:54:09,1525141
2025-09-10 18:54:09,1524255
2025-09-10 18:54:09,1523578
2025-09-10 18:54:09,1523051
2025-09-10 18:54:09,1522531
2025-09-10 18:54:09,1522221
2025-09-10 18:54:09,1522086
2025-09-10 18:54:10,1521906
2025-09-10 18:54:10,1521890
2025-09-10 18:54:10,1521906
2025-09-10 18:54:10,1521905
2025-09-10 18:54:10,1521963
2025-09-10 18:54:10,1522148
2025-09-10 18:54:10,1522191
2025-09-10 18:54:10,1522193
2025-09-10 18:54:10,1522390
2025-09-10 18:54:10,1522558
2025-09-10 18:54:10,1522726
2025-09-10 18:54:10,1522921
2025-09-10 18:54:10,1523091
2025-09-10 18:54:10,1523413
2025-09-10 18:54:10,1523701
2025-09-10 18:54:10,1524012
2025-09-10 18:54:10,1524303
2025-09-10 18:54:10,1524589
2025-09-10 18:54:10,1524778
2025-09-10 18:54:10,1524906
2025-09-10 18:54:10,1525138
2025-09-10 18:54:10,1525199
2025-09-10 18:54:10,1525375
2025-09-10 18:54:10,1525389
2025-09-10 18:54:10,1525440
2025-09-10 18:54:10,1525465
2025-09-10 18:54:10,1525440
2025-09-10 18:54:10,1525468
2025-09-10 18:54:10,1525501
2025-09-10 18:54:10,1525514
2025-09-10 18:54:10,1525608
2025-09-10 18:54:10,1525660
2025-09-10 18:54:10,1525895
2025-09-10 18:54:10,1525920
2025-09-10 18:54:10,1525980
2025-09-10 18:54:10,1526155
2025-09-10 18:54:10,1526315
2025-09-10 18:54:10,1526493
2025-09-10 18:54:10,1526590
2025-09-10 18:54:10,1526865
2025-09-10 18:54:10,1527035
2025-09-10 18:54:10,1527257
2025-09-10 18:54:10,1527495
2025-09-10 18:54:10,1527667
2025-09-10 18:54:10,1527933
2025-09-10 18:54:10,1528166
2025-09-10 18:54:10,1528319
2025-09-10 18:54:10,1528576
2025-09-10 18:54:10,1528714
2025-09-10 18:54:10,1529045
2025-09-10 18:54:10,1529215
2025-09-10 18:54:10,1529447
2025-09-10 18:54:10,1529600
2025-09-10 18:54:10,1529846
2025-09-10 18:54:10,1530098
2025-09-10 18:54:10,1530252
2025-09-10 18:54:10,1530488
2025-09-10 18:54:10,1530644
2025-09-10 18:54:10,1530939
2025-09-10 18:54:10,1531061
2025-09-10 18:54:10,1531340
2025-09-10 18:54:10,1531451
2025-09-10 18:54:10,1531731
2025-09-10 18:54:10,1531842
2025-09-10 18:54:10,1532016
2025-09-10 18:54:10,1532282
2025-09-10 18:54:10,1532483
2025-09-10 18:54:10,1532751
2025-09-10 18:54:10,1532844
2025-09-10 18:54:10,1533096
2025-09-10 18:54:10,1533216
2025-09-10 18:54:10,1533482
2025-09-10 18:54:10,1533524
2025-09-10 18:54:10,1533337
2025-09-10 18:54:10,1532424
2025-09-10 18:54:10,1531184
2025-09-10 18:54:10,1529829
2025-09-10 18:54:10,1528514
2025-09-10 18:54:10,1527373
2025-09-10 18:54:10,1526415
2025-09-10 18:54:10,1525505
2025-09-10 18:54:10,1524662
2025-09-10 18:54:10,1524121
2025-09-10 18:54:10,1523593
2025-09-10 18:54:10,1523252
2025-09-10 18:54:10,1523055
2025-09-10 18:54:10,1522912
2025-09-10 18:54:10,1522764
2025-09-10 18:54:10,1522878
2025-09-10 18:54:10,1522922
2025-09-10 18:54:10,1522994
2025-09-10 18:54:10,1523119
2025-09-10 18:54:10,1523296
2025-09-10 18:54:10,1523466
2025-09-10 18:54:10,1523560
2025-09-10 18:54:10,1523740
2025-09-10 18:54:10,1523954
2025-09-10 18:54:10,1524143
2025-09-10 18:54:10,1524323
2025-09-10 18:54:10,1524611
2025-09-10 18:54:11,1524966
2025-09-10 18:54:11,1525304
2025-09-10 18:54:11,1525557
2025-09-10 18:54:11,1525874
2025-09-10 18:54:11,1526065
2025-09-10 18:54:11,1526299
2025-09-10 18:54:11,1526395
2025-09-10 18:54:11,1526468
2025-09-10 18:54:11,1526592
2025-09-10 18:54:11,1526620
2025-09-10 18:54:11,1526667
2025-09-10 18:54:11,1526620
2025-09-10 18:54:11,1526671
2025-09-10 18:54:11,1526635
2025-09-10 18:54:11,1526641
2025-09-10 18:54:11,1526629
2025-09-10 18:54:11,1526703
2025-09-10 18:54:11,1526787
2025-09-10 18:54:11,1526828
2025-09-10 18:54:11,1527001
2025-09-10 18:54:11,1527070
2025-09-10 18:54:11,1527176
2025-09-10 18:54:11,1527378
2025-09-10 18:54:11,1527514
2025-09-10 18:54:11,1527793
2025-09-10 18:54:11,1527822
2025-09-10 18:54:11,1528040
2025-09-10 18:54:11,1528268
2025-09-10 18:54:11,1528428
2025-09-10 18:54:11,1528663
2025-09-10 18:54:11,1528910
2025-09-10 18:54:11,1529135
2025-09-10 18:54:11,1529313
2025-09-10 18:54:11,1529473
2025-09-10 18:54:11,1529642
2025-09-10 18:54:11,1529892
2025-09-10 18:54:11,1530037
2025-09-10 18:54:11,1530240
2025-09-10 18:54:11,1530461
2025-09-10 18:54:11,1530529
2025-09-10 18:54:11,1530816
2025-09-10 18:54:11,1530963
2025-09-10 18:54:11,1531193
2025-09-10 18:54:11,1531311
2025-09-10 18:54:11,1531517
2025-09-10 18:54:11,1531637
2025-09-10 18:54:11,1531836
2025-09-10 18:54:11,1532064
2025-09-10 18:54:11,1532275
2025-09-10 18:54:11,1532475
2025-09-10 18:54:11,1532596
2025-09-10 18:54:11,1532765
2025-09-10 18:54:11,1532937
2025-09-10 18:54:11,1532946
2025-09-10 18:54:11,1532475
2025-09-10 18:54:11,1531592
2025-09-10 18:54:11,1530289
2025-09-10 18:54:11,1529104
2025-09-10 18:54:11,1527885
2025-09-10 18:54:11,1526877
2025-09-10 18:54:11,1525906
2025-09-10 18:54:11,1525084
2025-09-10 18:54:11,1524402
2025-09-10 18:54:11,1523842
2025-09-10 18:54:11,1523497
2025-09-10 18:54:11,1523164
2025-09-10 18:54:11,1523011
2025-09-10 18:54:11,1522981
2025-09-10 18:54:11,1522916
2025-09-10 18:54:11,1522905
2025-09-10 18:54:11,1523053
2025-09-10 18:54:11,1523091
2025-09-10 18:54:11,1523230
2025-09-10 18:54:11,1523408
2025-09-10 18:54:11,1523562
2025-09-10 18:54:11,1523731
2025-09-10 18:54:11,1523830
2025-09-10 18:54:11,1524101
2025-09-10 18:54:11,1524291
2025-09-10 18:54:11,1524477
2025-09-10 18:54:11,1524769
2025-09-10 18:54:11,1525115
2025-09-10 18:54:11,1525396
2025-09-10 18:54:11,1525689
2025-09-10 18:54:11,1525948
2025-09-10 18:54:11,1526190
2025-09-10 18:54:11,1526345
2025-09-10 18:54:11,1526388
2025-09-10 18:54:11,1526525
2025-09-10 18:54:11,1526559
2025-09-10 18:54:11,1526556
2025-09-10 18:54:11,1526551
2025-09-10 18:54:11,1526578
2025-09-10 18:54:11,1526583
2025-09-10 18:54:11,1526634
2025-09-10 18:54:11,1526594
2025-09-10 18:54:11,1526708
2025-09-10 18:54:11,1526772
2025-09-10 18:54:11,1526796
2025-09-10 18:54:11,1526953
2025-09-10 18:54:12,1527128
2025-09-10 18:54:12,1527216
2025-09-10 18:54:12,1527346
2025-09-10 18:54:12,1527495
2025-09-10 18:54:12,1527674
2025-09-10 18:54:12,1527846
2025-09-10 18:54:12,1528052
2025-09-10 18:54:12,1528187
2025-09-10 18:54:12,1528388
2025-09-10 18:54:12,1528644
2025-09-10 18:54:12,1528797
2025-09-10 18:54:12,1528965
2025-09-10 18:54:12,1529209
2025-09-10 18:54:12,1529407
2025-09-10 18:54:12,1529606
2025-09-10 18:54:12,1529853
2025-09-10 18:54:12,1529970
2025-09-10 18:54:12,1530158
2025-09-10 18:54:12,1530456
2025-09-10 18:54:12,1530643
2025-09-10 18:54:12,1530830
2025-09-10 18:54:12,1530903
2025-09-10 18:54:12,1531202
2025-09-10 18:54:12,1531362
2025-09-10 18:54:12,1531484
2025-09-10 18:54:12,1531678
2025-09-10 18:54:12,1531929
2025-09-10 18:54:12,1532098
2025-09-10 18:54:12,1532342
2025-09-10 18:54:12,1532598
2025-09-10 18:54:12,1532764
2025-09-10 18:54:12,1532809
2025-09-10 18:54:12,1532719
2025-09-10 18:54:12,1532207
2025-09-10 18:54:12,1531053
2025-09-10 18:54:12,1529807
2025-09-10 18:54:12,1528463
2025-09-10 18:54:12,1527381
2025-09-10 18:54:12,1526364
2025-09-10 18:54:12,1525302
2025-09-10 18:54:12,1524477
2025-09-10 18:54:12,1523791
2025-09-10 18:54:12,1523258
2025-09-10 18:54:12,1522867
2025-09-10 18:54:12,1522555
2025-09-10 18:54:12,1522407
2025-09-10 18:54:12,1522275
2025-09-10 18:54:12,1522194
2025-09-10 18:54:12,1522211
2025-09-10 18:54:12,1522192
2025-09-10 18:54:12,1522301
2025-09-10 18:54:12,1522349
2025-09-10 18:54:12,1522450
2025-09-10 18:54:12,1522491
2025-09-10 18:54:12,1522605
2025-09-10 18:54:12,1522753
2025-09-10 18:54:12,1522911
2025-09-10 18:54:12,1523020
2025-09-10 18:54:12,1523219
2025-09-10 18:54:12,1523452
2025-09-10 18:54:12,1523770
2025-09-10 18:54:12,1523990
2025-09-10 18:54:12,1524287
2025-09-10 18:54:12,1524603
2025-09-10 18:54:12,1524732
2025-09-10 18:54:12,1524935
2025-09-10 18:54:12,1525094
2025-09-10 18:54:12,1525252
2025-09-10 18:54:12,1525322
2025-09-10 18:54:12,1525402
2025-09-10 18:54:12,1525397
2025-09-10 18:54:12,1525452
2025-09-10 18:54:12,1525517
2025-09-10 18:54:12,1525545
2025-09-10 18:54:12,1525610
2025-09-10 18:54:12,1525639
2025-09-10 18:54:12,1525638
2025-09-10 18:54:12,1525781
2025-09-10 18:54:12,1525834
2025-09-10 18:54:12,1525957
2025-09-10 18:54:12,1526059
2025-09-10 18:54:12,1526216
2025-09-10 18:54:12,1526327
2025-09-10 18:54:12,1526450
2025-09-10 18:54:12,1526647
2025-09-10 18:54:12,1526929
2025-09-10 18:54:12,1527083
2025-09-10 18:54:12,1527255
2025-09-10 18:54:12,1527522
2025-09-10 18:54:12,1527690
2025-09-10 18:54:12,1527953
2025-09-10 18:54:12,1528108
2025-09-10 18:54:12,1528351
2025-09-10 18:54:12,1528513
2025-09-10 18:54:12,1528843
2025-09-10 18:54:12,1529029
2025-09-10 18:54:12,1529144
2025-09-10 18:54:12,1529428
2025-09-10 18:54:12,1529568
2025-09-10 18:54:12,1529824
2025-09-10 18:54:12,1530064
2025-09-10 18:54:13,1530265
2025-09-10 18:54:13,1530437
2025-09-10 18:54:13,1530645
2025-09-10 18:54:13,1530858
2025-09-10 18:54:13,1531024
2025-09-10 18:54:13,1531220
2025-09-10 18:54:13,1531466
2025-09-10 18:54:13,1531655
2025-09-10 18:54:13,1531849
2025-09-10 18:54:13,1532012
2025-09-10 18:54:13,1532224
2025-09-10 18:54:13,1532316
2025-09-10 18:54:13,1532155
2025-09-10 18:54:13,1531431
2025-09-10 18:54:13,1530126
2025-09-10 18:54:13,1528920
2025-09-10 18:54:13,1527703
2025-09-10 18:54:13,1526552
2025-09-10 18:54:13,1525564
2025-09-10 18:54:13,1524735
2025-09-10 18:54:13,1523945
2025-09-10 18:54:13,1523353
2025-09-10 18:54:13,1522821
2025-09-10 18:54:13,1522603
2025-09-10 18:54:13,1522322
2025-09-10 18:54:13,1522201
2025-09-10 18:54:13,1522201
2025-09-10 18:54:13,1522153
2025-09-10 18:54:13,1522241
2025-09-10 18:54:13,1522295
2025-09-10 18:54:13,1522332
2025-09-10 18:54:13,1522460
2025-09-10 18:54:13,1522563
2025-09-10 18:54:13,1522752
2025-09-10 18:54:13,1522834
2025-09-10 18:54:13,1522966
2025-09-10 18:54:13,1523095
2025-09-10 18:54:13,1523365
2025-09-10 18:54:13,1523610
2025-09-10 18:54:13,1523851
2025-09-10 18:54:13,1524059
2025-09-10 18:54:13,1524418
2025-09-10 18:54:13,1524698
2025-09-10 18:54:13,1524967
2025-09-10 18:54:13,1525116
2025-09-10 18:54:13,1525329
2025-09-10 18:54:13,1525450
2025-09-10 18:54:13,1525544
2025-09-10 18:54:13,1525651
2025-09-10 18:54:13,1525609
2025-09-10 18:54:13,1525692
2025-09-10 18:54:13,1525659
2025-09-10 18:54:13,1525667
2025-09-10 18:54:13,1525740
2025-09-10 18:54:13,1525823
2025-09-10 18:54:13,1525807
2025-09-10 18:54:13,1525846
2025-09-10 18:54:13,1525987
2025-09-10 18:54:13,1526058
2025-09-10 18:54:13,1526164
2025-09-10 18:54:13,1526365
2025-09-10 18:54:13,1526476
2025-09-10 18:54:13,1526635
2025-09-10 18:54:13,1526891
2025-09-10 18:54:13,1526973
2025-09-10 18:54:13,1527204
2025-09-10 18:54:13,1527345
2025-09-10 18:54:13,1527565
2025-09-10 18:54:13,1527773
2025-09-10 18:54:13,1527988
2025-09-10 18:54:13,1528194
2025-09-10 18:54:13,1528447
2025-09-10 18:54:13,1528612
2025-09-10 18:54:13,1528760
2025-09-10 18:54:13,1529002
2025-09-10 18:54:13,1529234
2025-09-10 18:54:13,1529438
2025-09-10 18:54:13,1529605
2025-09-10 18:54:13,1529787
2025-09-10 18:54:13,1529909
2025-09-10 18:54:13,1530141
2025-09-10 18:54:13,1530320
2025-09-10 18:54:13,1530540
2025-09-10 18:54:13,1530732
2025-09-10 18:54:13,1530877
2025-09-10 18:54:13,1531142
2025-09-10 18:54:13,1531262
2025-09-10 18:54:13,1531530
2025-09-10 18:54:13,1531649
2025-09-10 18:54:13,1531910
2025-09-10 18:54:13,1532098
2025-09-10 18:54:13,1531983
2025-09-10 18:54:13,1531873
2025-09-10 18:54:13,1530940
2025-09-10 18:54:13,1529682
2025-09-10 18:54:13,1528437
2025-09-10 18:54:13,1527157
2025-09-10 18:54:13,1526184
2025-09-10 18:54:13,1525216
2025-09-10 18:54:14,1524367
2025-09-10 18:54:14,1523744
2025-09-10 18:54:14,1523167
2025-09-10 18:54:14,1522855
2025-09-10 18:54:14,1522567
2025-09-10 18:54:14,1522342
2025-09-10 18:54:14,1522254
2025-09-10 18:54:14,1522269
2025-09-10 18:54:14,1522346
2025-09-10 18:54:14,1522373
2025-09-10 18:54:14,1522518
2025-09-10 18:54:14,1522621
2025-09-10 18:54:14,1522705
2025-09-10 18:54:14,1522799
2025-09-10 18:54:14,1523082
2025-09-10 18:54:14,1523329
2025-09-10 18:54:14,1523392
2025-09-10 18:54:14,1523657
2025-09-10 18:54:14,1523984
2025-09-10 18:54:14,1524186
2025-09-10 18:54:14,1524513
2025-09-10 18:54:14,1524841
2025-09-10 18:54:14,1525143
2025-09-10 18:54:14,1525328
2025-09-10 18:54:14,1525462
2025-09-10 18:54:14,1525592
2025-09-10 18:54:14,1525676
2025-09-10 18:54:14,1525697
2025-09-10 18:54:14,1525758
2025-09-10 18:54:14,1525751
2025-09-10 18:54:14,1525733
2025-09-10 18:54:14,1525795
2025-09-10 18:54:14,1525740
2025-09-10 18:54:14,1525729
2025-09-10 18:54:14,1525641
2025-09-10 18:54:14,1525676
2025-09-10 18:54:14,1525772
2025-09-10 18:54:14,1525955
2025-09-10 18:54:14,1525971
2025-09-10 18:54:14,1526126
2025-09-10 18:54:14,1526171
2025-09-10 18:54:14,1526329
2025-09-10 18:54:14,1526454
2025-09-10 18:54:14,1526670
2025-09-10 18:54:14,1526836
2025-09-10 18:54:14,1526957
2025-09-10 18:54:14,1527167
2025-09-10 18:54:14,1527356
2025-09-10 18:54:14,1527551
2025-09-10 18:54:14,1527777
2025-09-10 18:54:14,1527904
2025-09-10 18:54:14,1528060
2025-09-10 18:54:14,1528294
2025-09-10 18:54:14,1528550
2025-09-10 18:54:14,1528582
2025-09-10 18:54:14,1528815
2025-09-10 18:54:14,1528988
2025-09-10 18:54:14,1529181
2025-09-10 18:54:14,1529302
2025-09-10 18:54:14,1529563
2025-09-10 18:54:14,1529719
2025-09-10 18:54:14,1529753
2025-09-10 18:54:14,1530054
2025-09-10 18:54:14,1530206
2025-09-10 18:54:14,1530510
2025-09-10 18:54:14,1530588
2025-09-10 18:54:14,1530827
2025-09-10 18:54:14,1530955
2025-09-10 18:54:14,1530943
2025-09-10 18:54:14,1530719
2025-09-10 18:54:14,1529982
2025-09-10 18:54:14,1528775
2025-09-10 18:54:14,1527583
2025-09-10 18:54:14,1526365
2025-09-10 18:54:14,1525260
2025-09-10 18:54:14,1524245
2025-09-10 18:54:14,1523402
2025-09-10 18:54:14,1522679
2025-09-10 18:54:14,1522132
2025-09-10 18:54:14,1521708
2025-09-10 18:54:14,1521432
2025-09-10 18:54:14,1521144
2025-09-10 18:54:14,1521061
2025-09-10 18:54:14,1520935
2025-09-10 18:54:14,1520941
2025-09-10 18:54:14,1520950
2025-09-10 18:54:14,1520946
2025-09-10 18:54:14,1520933
2025-09-10 18:54:14,1520956
2025-09-10 18:54:14,1521143
2025-09-10 18:54:14,1521184
2025-09-10 18:54:14,1521230
2025-09-10 18:54:14,1521348
2025-09-10 18:54:14,1521493
2025-09-10 18:54:14,1521641
2025-09-10 18:54:14,1521846
2025-09-10 18:54:14,1522064
2025-09-10 18:54:14,1522355
2025-09-10 18:54:14,1522537
2025-09-10 18:54:14,1522784
2025-09-10 18:54:15,1523032
2025-09-10 18:54:15,1523194
2025-09-10 18:54:15,1523342
2025-09-10 18:54:15,1523505
2025-09-10 18:54:15,1523512
2025-09-10 18:54:15,1523606
2025-09-10 18:54:15,1523642
2025-09-10 18:54:15,1523620
2025-09-10 18:54:15,1523645
2025-09-10 18:54:15,1523658
2025-09-10 18:54:15,1523645
2025-09-10 18:54:15,1523677
2025-09-10 18:54:15,1523779
2025-09-10 18:54:15,1523834
2025-09-10 18:54:15,1523948
2025-09-10 18:54:15,1524105
2025-09-10 18:54:15,1524144
2025-09-10 18:54:15,1524263
2025-09-10 18:54:15,1524400
2025-09-10 18:54:15,1524507
2025-09-10 18:54:15,1524717
2025-09-10 18:54:15,1524854
2025-09-10 18:54:15,1525052
2025-09-10 18:54:15,1525251
2025-09-10 18:54:15,1525418
2025-09-10 18:54:15,1525641
2025-09-10 18:54:15,1525825
2025-09-10 18:54:15,1525976
2025-09-10 18:54:15,1526164
2025-09-10 18:54:15,1526378
2025-09-10 18:54:15,1526587
2025-09-10 18:54:15,1526828
2025-09-10 18:54:15,1527027
2025-09-10 18:54:15,1527184
2025-09-10 18:54:15,1527433
2025-09-10 18:54:15,1527658
2025-09-10 18:54:15,1527817
2025-09-10 18:54:15,1527930
2025-09-10 18:54:15,1528158
2025-09-10 18:54:15,1528391
2025-09-10 18:54:15,1528497
2025-09-10 18:54:15,1528757
2025-09-10 18:54:15,1529019
2025-09-10 18:54:15,1529155
2025-09-10 18:54:15,1529421
2025-09-10 18:54:15,1529504
2025-09-10 18:54:15,1529761
2025-09-10 18:54:15,1529983
2025-09-10 18:54:15,1530012
2025-09-10 18:54:15,1529991
2025-09-10 18:54:15,1529470
2025-09-10 18:54:15,1528419
2025-09-10 18:54:15,1527122
2025-09-10 18:54:15,1525811
2025-09-10 18:54:15,1524702
2025-09-10 18:54:15,1523561
2025-09-10 18:54:15,1522677
2025-09-10 18:54:15,1521747
2025-09-10 18:54:15,1521150
2025-09-10 18:54:15,1520675
2025-09-10 18:54:15,1520253
2025-09-10 18:54:15,1519910
2025-09-10 18:54:15,1519781
2025-09-10 18:54:15,1519675
2025-09-10 18:54:15,1519587
2025-09-10 18:54:15,1519507
2025-09-10 18:54:15,1519433
2025-09-10 18:54:15,1519501
2025-09-10 18:54:15,1519481
2025-09-10 18:54:15,1519495
2025-09-10 18:54:15,1519547
2025-09-10 18:54:15,1519626
2025-09-10 18:54:15,1519671
2025-09-10 18:54:15,1519783
2025-09-10 18:54:15,1519833
2025-09-10 18:54:15,1520055
2025-09-10 18:54:15,1520271
2025-09-10 18:54:15,1520459
2025-09-10 18:54:15,1520777
2025-09-10 18:54:15,1520961
2025-09-10 18:54:15,1521194
2025-09-10 18:54:15,1521413
2025-09-10 18:54:15,1521513
2025-09-10 18:54:15,1521711
2025-09-10 18:54:15,1521828
2025-09-10 18:54:15,1521938
2025-09-10 18:54:15,1521913
2025-09-10 18:54:15,1521997
2025-09-10 18:54:15,1522004
2025-09-10 18:54:15,1521975
2025-09-10 18:54:15,1522005
2025-09-10 18:54:15,1522036
2025-09-10 18:54:15,1522093
2025-09-10 18:54:15,1522120
2025-09-10 18:54:15,1522192
2025-09-10 18:54:15,1522279
2025-09-10 18:54:15,1522340
2025-09-10 18:54:15,1522489
2025-09-10 18:54:15,1522616
2025-09-10 18:54:15,1522750
2025-09-10 18:54:16,1522921
2025-09-10 18:54:16,1523029
2025-09-10 18:54:16,1523269
2025-09-10 18:54:16,1523446
2025-09-10 18:54:16,1523583
2025-09-10 18:54:16,1523808
2025-09-10 18:54:16,1523941
2025-09-10 18:54:16,1524207
2025-09-10 18:54:16,1524346
2025-09-10 18:54:16,1524663
2025-09-10 18:54:16,1524734
2025-09-10 18:54:16,1525064
2025-09-10 18:54:16,1525270
2025-09-10 18:54:16,1525411
2025-09-10 18:54:16,1525627
2025-09-10 18:54:16,1525915
2025-09-10 18:54:16,1525988
2025-09-10 18:54:16,1526311
2025-09-10 18:54:16,1526520
2025-09-10 18:54:16,1526664
2025-09-10 18:54:16,1526931
2025-09-10 18:54:16,1527027
2025-09-10 18:54:16,1527329
2025-09-10 18:54:16,1527417
2025-09-10 18:54:16,1527614
2025-09-10 18:54:16,1527831
2025-09-10 18:54:16,1528028
2025-09-10 18:54:16,1528301
2025-09-10 18:54:16,1528535
2025-09-10 18:54:16,1528771
2025-09-10 18:54:16,1528969
2025-09-10 18:54:16,1529091
2025-09-10 18:54:16,1529195
2025-09-10 18:54:16,1529039
2025-09-10 18:54:16,1528330
2025-09-10 18:54:16,1527181
2025-09-10 18:54:16,1525890
2025-09-10 18:54:16,1524617
2025-09-10 18:54:16,1523491
2025-09-10 18:54:16,1522380
2025-09-10 18:54:16,1521496
2025-09-10 18:54:16,1520720
2025-09-10 18:54:16,1520157
2025-09-10 18:54:16,1519647
2025-09-10 18:54:16,1519294
2025-09-10 18:54:16,1519037
2025-09-10 18:54:16,1518893
2025-09-10 18:54:16,1518817
2025-09-10 18:54:16,1518789
2025-09-10 18:54:16,1518822
2025-09-10 18:54:16,1518821
2025-09-10 18:54:16,1518830
2025-09-10 18:54:16,1518888
2025-09-10 18:54:16,1519030
2025-09-10 18:54:16,1519060
2025-09-10 18:54:16,1519237
2025-09-10 18:54:16,1519315
2025-09-10 18:54:16,1519466
2025-09-10 18:54:16,1519635
2025-09-10 18:54:16,1519839
2025-09-10 18:54:16,1520077
2025-09-10 18:54:16,1520310
2025-09-10 18:54:16,1520638
2025-09-10 18:54:16,1520827
2025-09-10 18:54:16,1521029
2025-09-10 18:54:16,1521300
2025-09-10 18:54:16,1521298
2025-09-10 18:54:16,1521470
2025-09-10 18:54:16,1521565
